 F Density=1., Angle=90.deg
 Photon Energy (eV), Atten Length (microns)
   6800.00  392.386
   6814.40  394.921
   6828.80  397.466
   6843.20  400.022
   6857.60  402.589
   6872.00  405.171
   6886.40  407.763
   6900.80  410.367
   6915.20  412.982
   6929.60  415.607
   6944.00  418.244
   6958.40  420.892
   6972.80  423.551
   6987.20  426.222
   7001.60  428.904
   7016.00  431.597
   7030.40  434.301
   7044.80  437.017
   7059.20  439.744
   7073.60  442.482
   7088.00  445.234
   7102.40  447.999
   7116.80  450.776
   7131.20  453.565
   7145.60  456.364
   7160.00  459.175
   7174.40  461.997
   7188.80  464.832
   7203.20  467.678
   7217.60  470.536
   7232.00  473.407
   7246.40  476.288
   7260.80  479.182
   7275.20  482.087
   7289.60  485.004
   7304.00  487.932
   7318.40  490.875
   7332.80  493.832
   7347.20  496.800
   7361.60  499.780
   7376.00  502.772
   7390.40  505.776
   7404.80  508.791
   7419.20  511.819
   7433.60  514.860
   7448.00  517.913
   7462.40  520.979
   7476.80  524.057
   7491.20  527.147
   7505.60  530.249
   7520.00  533.363
   7534.40  536.489
   7548.80  539.627
   7563.20  542.781
   7577.60  545.947
   7592.00  549.126
   7606.40  552.316
   7620.80  555.519
   7635.20  558.734
   7649.60  561.961
   7664.00  565.201
   7678.40  568.455
   7692.80  571.723
   7707.20  575.003
   7721.60  578.296
   7736.00  581.602
   7750.40  584.919
   7764.80  588.250
   7779.20  591.592
   7793.60  594.949
   7808.00  598.320
   7822.40  601.705
   7836.80  605.103
   7851.20  608.514
   7865.60  611.936
   7880.00  615.372
   7894.40  618.821
   7908.80  622.282
   7923.20  625.757
   7937.60  629.248
   7952.00  632.753
   7966.40  636.270
   7980.80  639.799
   7995.20  643.343
   8009.60  646.898
   8024.00  650.469
   8038.40  654.053
   8052.80  657.650
   8067.20  661.262
   8081.60  664.888
   8096.00  668.527
   8110.40  672.179
   8124.80  675.844
   8139.20  679.523
   8153.60  683.215
   8168.00  686.919
   8182.40  690.638
   8196.80  694.372
   8211.20  698.117
   8225.60  701.877
   8240.00  705.652
   8254.40  709.437
   8268.80  713.238
   8283.20  717.052
   8297.60  720.879
   8312.00  724.720
   8326.40  728.581
   8340.80  732.457
   8355.20  736.346
   8369.60  740.248
   8384.00  744.165
   8398.40  748.095
   8412.80  752.039
   8427.20  755.997
   8441.60  759.968
   8456.00  763.955
   8470.40  767.958
   8484.80  771.974
   8499.20  776.004
   8513.60  780.048
   8528.00  784.105
   8542.40  788.177
   8556.80  792.263
   8571.20  796.362
   8585.60  800.476
   8600.00  804.608
   8614.40  808.753
   8628.80  812.911
   8643.20  817.085
   8657.60  821.272
   8672.00  825.474
   8686.40  829.690
   8700.80  833.919
   8715.20  838.163
   8729.60  842.424
   8744.00  846.704
   8758.40  850.996
   8772.80  855.304
   8787.20  859.626
   8801.60  863.960
   8816.00  868.312
   8830.40  872.676
   8844.80  877.056
   8859.20  881.449
   8873.60  885.856
   8888.00  890.280
   8902.40  894.716
   8916.80  899.167
   8931.20  903.633
   8945.60  908.113
   8960.00  912.609
   8974.40  917.119
   8988.80  921.643
   9003.20  926.182
   9017.60  930.747
   9032.00  935.329
   9046.40  939.927
   9060.80  944.537
   9075.20  949.164
   9089.60  953.807
   9104.00  958.464
   9118.40  963.135
   9132.80  967.822
   9147.20  972.524
   9161.60  977.239
   9176.00  981.971
   9190.40  986.716
   9204.80  991.478
   9219.20  996.254
   9233.60  1001.04
   9248.00  1005.85
   9262.40  1010.67
   9276.80  1015.51
   9291.20  1020.36
   9305.60  1025.23
   9320.00  1030.12
   9334.40  1035.02
   9348.80  1039.94
   9363.20  1044.88
   9377.60  1049.83
   9392.00  1054.79
   9406.40  1059.78
   9420.80  1064.77
   9435.20  1069.78
   9449.60  1074.81
   9464.00  1079.86
   9478.40  1084.92
   9492.80  1090.00
   9507.20  1095.10
   9521.60  1100.21
   9536.00  1105.33
   9550.40  1110.48
   9564.80  1115.63
   9579.20  1120.81
   9593.60  1126.00
   9608.00  1131.20
   9622.40  1136.43
   9636.80  1141.67
   9651.20  1146.93
   9665.60  1152.20
   9680.00  1157.49
   9694.40  1162.79
   9708.80  1168.11
   9723.20  1173.45
   9737.60  1178.80
   9752.00  1184.17
   9766.40  1189.56
   9780.80  1194.96
   9795.20  1200.38
   9809.60  1205.82
   9824.00  1211.28
   9838.40  1216.75
   9852.80  1222.23
   9867.20  1227.73
   9881.60  1233.25
   9896.00  1238.78
   9910.40  1244.33
   9924.80  1249.91
   9939.20  1255.50
   9953.60  1261.10
   9968.00  1266.72
   9982.40  1272.37
   9996.80  1278.02
   10011.2  1283.70
   10025.6  1289.39
   10040.0  1295.10
   10054.4  1300.83
   10068.8  1306.57
   10083.2  1312.33
   10097.6  1318.11
   10112.0  1323.91
   10126.4  1329.72
   10140.8  1335.55
   10155.2  1341.40
   10169.6  1347.27
   10184.0  1353.14
   10198.4  1359.04
   10212.8  1364.96
   10227.2  1370.89
   10241.6  1376.84
   10256.0  1382.81
   10270.4  1388.80
   10284.8  1394.80
   10299.2  1400.83
   10313.6  1406.86
   10328.0  1412.92
   10342.4  1418.99
   10356.8  1425.09
   10371.2  1431.19
   10385.6  1437.32
   10400.0  1443.46
   10414.4  1449.62
   10428.8  1455.81
   10443.2  1462.00
   10457.6  1468.22
   10472.0  1474.45
   10486.4  1480.70
   10500.8  1486.97
   10515.2  1493.26
   10529.6  1499.56
   10544.0  1505.88
   10558.4  1512.22
   10572.8  1518.57
   10587.2  1524.95
   10601.6  1531.35
   10616.0  1537.76
   10630.4  1544.19
   10644.8  1550.64
   10659.2  1557.10
   10673.6  1563.59
   10688.0  1570.09
   10702.4  1576.61
   10716.8  1583.14
   10731.2  1589.70
   10745.6  1596.27
   10760.0  1602.87
   10774.4  1609.48
   10788.8  1616.11
   10803.2  1622.76
   10817.6  1629.43
   10832.0  1636.11
   10846.4  1642.81
   10860.8  1649.53
   10875.2  1656.27
   10889.6  1663.02
   10904.0  1669.80
   10918.4  1676.59
   10932.8  1683.40
   10947.2  1690.24
   10961.6  1697.09
   10976.0  1703.96
   10990.4  1710.84
   11004.8  1717.75
   11019.2  1724.68
   11033.6  1731.62
   11048.0  1738.58
   11062.4  1745.55
   11076.8  1752.55
   11091.2  1759.56
   11105.6  1766.60
   11120.0  1773.66
   11134.4  1780.74
   11148.8  1787.83
   11163.2  1794.95
   11177.6  1802.08
   11192.0  1809.23
   11206.4  1816.40
   11220.8  1823.58
   11235.2  1830.79
   11249.6  1838.01
   11264.0  1845.25
   11278.4  1852.52
   11292.8  1859.80
   11307.2  1867.11
   11321.6  1874.43
   11336.0  1881.77
   11350.4  1889.13
   11364.8  1896.51
   11379.2  1903.91
   11393.6  1911.32
   11408.0  1918.76
   11422.4  1926.21
   11436.8  1933.68
   11451.2  1941.17
   11465.6  1948.69
   11480.0  1956.22
   11494.4  1963.77
   11508.8  1971.34
   11523.2  1978.93
   11537.6  1986.54
   11552.0  1994.17
   11566.4  2001.81
   11580.8  2009.48
   11595.2  2017.16
   11609.6  2024.86
   11624.0  2032.58
   11638.4  2040.32
   11652.8  2048.09
   11667.2  2055.87
   11681.6  2063.68
   11696.0  2071.50
   11710.4  2079.34
   11724.8  2087.21
   11739.2  2095.09
   11753.6  2102.99
   11768.0  2110.90
   11782.4  2118.84
   11796.8  2126.80
   11811.2  2134.77
   11825.6  2142.77
   11840.0  2150.79
   11854.4  2158.83
   11868.8  2166.89
   11883.2  2174.98
   11897.6  2183.08
   11912.0  2191.20
   11926.4  2199.33
   11940.8  2207.49
   11955.2  2215.67
   11969.6  2223.87
   11984.0  2232.08
   11998.4  2240.32
   12012.8  2248.57
   12027.2  2256.85
   12041.6  2265.15
   12056.0  2273.47
   12070.4  2281.81
   12084.8  2290.16
   12099.2  2298.54
   12113.6  2306.94
   12128.0  2315.35
   12142.4  2323.79
   12156.8  2332.24
   12171.2  2340.71
   12185.6  2349.21
   12200.0  2357.72
   12214.4  2366.25
   12228.8  2374.82
   12243.2  2383.40
   12257.6  2392.00
   12272.0  2400.63
   12286.4  2409.27
   12300.8  2417.93
   12315.2  2426.62
   12329.6  2435.32
   12344.0  2444.04
   12358.4  2452.78
   12372.8  2461.54
   12387.2  2470.33
   12401.6  2479.13
   12416.0  2487.95
   12430.4  2496.79
   12444.8  2505.66
   12459.2  2514.55
   12473.6  2523.45
   12488.0  2532.38
   12502.4  2541.32
   12516.8  2550.29
   12531.2  2559.28
   12545.6  2568.28
   12560.0  2577.31
   12574.4  2586.35
   12588.8  2595.42
   12603.2  2604.50
   12617.6  2613.62
   12632.0  2622.75
   12646.4  2631.90
   12660.8  2641.08
   12675.2  2650.28
   12689.6  2659.49
   12704.0  2668.73
   12718.4  2677.99
   12732.8  2687.27
   12747.2  2696.56
   12761.6  2705.88
   12776.0  2715.22
   12790.4  2724.58
   12804.8  2733.96
   12819.2  2743.35
   12833.6  2752.77
   12848.0  2762.22
   12862.4  2771.68
   12876.8  2781.17
   12891.2  2790.67
   12905.6  2800.20
   12920.0  2809.74
   12934.4  2819.31
   12948.8  2828.89
   12963.2  2838.50
   12977.6  2848.12
   12992.0  2857.77
   13006.4  2867.44
   13020.8  2877.13
   13035.2  2886.84
   13049.6  2896.59
   13064.0  2906.35
   13078.4  2916.13
   13092.8  2925.94
   13107.2  2935.76
   13121.6  2945.61
   13136.0  2955.47
   13150.4  2965.36
   13164.8  2975.27
   13179.2  2985.20
   13193.6  2995.14
   13208.0  3005.11
   13222.4  3015.11
   13236.8  3025.12
   13251.2  3035.15
   13265.6  3045.21
   13280.0  3055.29
   13294.4  3065.38
   13308.8  3075.50
   13323.2  3085.64
   13337.6  3095.80
   13352.0  3105.98
   13366.4  3116.19
   13380.8  3126.41
   13395.2  3136.66
   13409.6  3146.92
   13424.0  3157.20
   13438.4  3167.51
   13452.8  3177.84
   13467.2  3188.20
   13481.6  3198.58
   13496.0  3208.98
   13510.4  3219.40
   13524.8  3229.85
   13539.2  3240.31
   13553.6  3250.79
   13568.0  3261.30
   13582.4  3271.83
   13596.8  3282.37
   13611.2  3292.94
   13625.6  3303.53
   13640.0  3314.14
   13654.4  3324.78
   13668.8  3335.43
   13683.2  3346.11
   13697.6  3356.80
   13712.0  3367.53
   13726.4  3378.27
   13740.8  3389.03
   13755.2  3399.81
   13769.6  3410.61
   13784.0  3421.44
   13798.4  3432.28
   13812.8  3443.15
   13827.2  3454.04
   13841.6  3464.95
   13856.0  3475.87
   13870.4  3486.83
   13884.8  3497.80
   13899.2  3508.81
   13913.6  3519.83
   13928.0  3530.88
   13942.4  3541.95
   13956.8  3553.04
   13971.2  3564.15
   13985.6  3575.28
   14000.0  3586.44
