 N Density=1., Angle=90.deg
 Photon Energy (eV), Atten Length (microns)
   6800.00  848.958
   6812.40  853.774
   6824.80  858.608
   6837.20  863.459
   6849.60  868.329
   6862.00  873.221
   6874.40  878.134
   6886.80  883.065
   6899.20  888.016
   6911.60  892.985
   6924.00  897.971
   6936.40  902.976
   6948.80  908.000
   6961.20  913.044
   6973.60  918.106
   6986.00  923.187
   6998.40  928.286
   7010.80  933.406
   7023.20  938.544
   7035.60  943.699
   7048.00  948.875
   7060.40  954.068
   7072.80  959.281
   7085.20  964.517
   7097.60  969.775
   7110.00  975.054
   7122.40  980.351
   7134.80  985.667
   7147.20  991.003
   7159.60  996.356
   7172.00  1001.73
   7184.40  1007.12
   7196.80  1012.54
   7209.20  1017.97
   7221.60  1023.43
   7234.00  1028.91
   7246.40  1034.40
   7258.80  1039.92
   7271.20  1045.45
   7283.60  1051.00
   7296.00  1056.58
   7308.40  1062.17
   7320.80  1067.78
   7333.20  1073.42
   7345.60  1079.07
   7358.00  1084.75
   7370.40  1090.44
   7382.80  1096.16
   7395.20  1101.89
   7407.60  1107.65
   7420.00  1113.42
   7432.40  1119.21
   7444.80  1125.03
   7457.20  1130.87
   7469.60  1136.73
   7482.00  1142.61
   7494.40  1148.51
   7506.80  1154.43
   7519.20  1160.37
   7531.60  1166.33
   7544.00  1172.31
   7556.40  1178.31
   7568.80  1184.33
   7581.20  1190.38
   7593.60  1196.45
   7606.00  1202.53
   7618.40  1208.64
   7630.80  1214.77
   7643.20  1220.91
   7655.60  1227.08
   7668.00  1233.27
   7680.40  1239.49
   7692.80  1245.72
   7705.20  1251.98
   7717.60  1258.26
   7730.00  1264.55
   7742.40  1270.87
   7754.80  1277.21
   7767.20  1283.57
   7779.60  1289.95
   7792.00  1296.36
   7804.40  1302.78
   7816.80  1309.23
   7829.20  1315.70
   7841.60  1322.20
   7854.00  1328.71
   7866.40  1335.24
   7878.80  1341.80
   7891.20  1348.37
   7903.60  1354.97
   7916.00  1361.59
   7928.40  1368.23
   7940.80  1374.90
   7953.20  1381.59
   7965.60  1388.29
   7978.00  1395.02
   7990.40  1401.77
   8002.80  1408.55
   8015.20  1415.35
   8027.60  1422.17
   8040.00  1429.01
   8052.40  1435.87
   8064.80  1442.77
   8077.20  1449.68
   8089.60  1456.62
   8102.00  1463.58
   8114.40  1470.56
   8126.80  1477.56
   8139.20  1484.58
   8151.60  1491.63
   8164.00  1498.69
   8176.40  1505.78
   8188.80  1512.90
   8201.20  1520.04
   8213.60  1527.21
   8226.00  1534.39
   8238.40  1541.60
   8250.80  1548.83
   8263.20  1556.08
   8275.60  1563.35
   8288.00  1570.65
   8300.40  1577.97
   8312.80  1585.31
   8325.20  1592.67
   8337.60  1600.06
   8350.00  1607.47
   8362.40  1614.91
   8374.80  1622.36
   8387.20  1629.84
   8399.60  1637.34
   8412.00  1644.87
   8424.40  1652.41
   8436.80  1659.98
   8449.20  1667.57
   8461.60  1675.20
   8474.00  1682.85
   8486.40  1690.52
   8498.80  1698.21
   8511.20  1705.93
   8523.60  1713.67
   8536.00  1721.43
   8548.40  1729.21
   8560.80  1737.02
   8573.20  1744.85
   8585.60  1752.70
   8598.00  1760.59
   8610.40  1768.49
   8622.80  1776.42
   8635.20  1784.37
   8647.60  1792.35
   8660.00  1800.35
   8672.40  1808.36
   8684.80  1816.41
   8697.20  1824.48
   8709.60  1832.56
   8722.00  1840.68
   8734.40  1848.82
   8746.80  1856.99
   8759.20  1865.18
   8771.60  1873.40
   8784.00  1881.64
   8796.40  1889.90
   8808.80  1898.18
   8821.20  1906.49
   8833.60  1914.82
   8846.00  1923.17
   8858.40  1931.55
   8870.80  1939.96
   8883.20  1948.40
   8895.60  1956.86
   8908.00  1965.34
   8920.40  1973.85
   8932.80  1982.38
   8945.20  1990.93
   8957.60  1999.51
   8970.00  2008.11
   8982.40  2016.74
   8994.80  2025.39
   9007.20  2034.06
   9019.60  2042.77
   9032.00  2051.50
   9044.40  2060.25
   9056.80  2069.02
   9069.20  2077.83
   9081.60  2086.65
   9094.00  2095.50
   9106.40  2104.37
   9118.80  2113.27
   9131.20  2122.19
   9143.60  2131.14
   9156.00  2140.11
   9168.40  2149.11
   9180.80  2158.14
   9193.20  2167.20
   9205.60  2176.27
   9218.00  2185.37
   9230.40  2194.50
   9242.80  2203.65
   9255.20  2212.82
   9267.60  2222.02
   9280.00  2231.25
   9292.40  2240.49
   9304.80  2249.77
   9317.20  2259.08
   9329.60  2268.41
   9342.00  2277.76
   9354.40  2287.15
   9366.80  2296.55
   9379.20  2305.98
   9391.60  2315.43
   9404.00  2324.91
   9416.40  2334.42
   9428.80  2343.95
   9441.20  2353.50
   9453.60  2363.08
   9466.00  2372.69
   9478.40  2382.32
   9490.80  2391.98
   9503.20  2401.67
   9515.60  2411.37
   9528.00  2421.11
   9540.40  2430.87
   9552.80  2440.66
   9565.20  2450.46
   9577.60  2460.29
   9590.00  2470.15
   9602.40  2480.04
   9614.80  2489.96
   9627.20  2499.91
   9639.60  2509.88
   9652.00  2519.88
   9664.40  2529.91
   9676.80  2539.96
   9689.20  2550.03
   9701.60  2560.13
   9714.00  2570.26
   9726.40  2580.41
   9738.80  2590.59
   9751.20  2600.79
   9763.60  2611.02
   9776.00  2621.28
   9788.40  2631.57
   9800.80  2641.87
   9813.20  2652.21
   9825.60  2662.57
   9838.00  2672.96
   9850.40  2683.37
   9862.80  2693.81
   9875.20  2704.27
   9887.60  2714.76
   9900.00  2725.28
   9912.40  2735.82
   9924.80  2746.40
   9937.20  2757.00
   9949.60  2767.63
   9962.00  2778.29
   9974.40  2788.97
   9986.80  2799.67
   9999.20  2810.41
   10011.6  2821.17
   10024.0  2831.97
   10036.4  2842.80
   10048.8  2853.64
   10061.2  2864.52
   10073.6  2875.42
   10086.0  2886.35
   10098.4  2897.31
   10110.8  2908.30
   10123.2  2919.31
   10135.6  2930.35
   10148.0  2941.42
   10160.4  2952.51
   10172.8  2963.63
   10185.2  2974.77
   10197.6  2985.95
   10210.0  2997.14
   10222.4  3008.37
   10234.8  3019.62
   10247.2  3030.90
   10259.6  3042.22
   10272.0  3053.55
   10284.4  3064.92
   10296.8  3076.32
   10309.2  3087.74
   10321.6  3099.18
   10334.0  3110.66
   10346.4  3122.16
   10358.8  3133.69
   10371.2  3145.24
   10383.6  3156.82
   10396.0  3168.42
   10408.4  3180.05
   10420.8  3191.73
   10433.2  3203.42
   10445.6  3215.14
   10458.0  3226.89
   10470.4  3238.67
   10482.8  3250.47
   10495.2  3262.30
   10507.6  3274.15
   10520.0  3286.03
   10532.4  3297.94
   10544.8  3309.87
   10557.2  3321.83
   10569.6  3333.82
   10582.0  3345.84
   10594.4  3357.90
   10606.8  3369.98
   10619.2  3382.09
   10631.6  3394.23
   10644.0  3406.39
   10656.4  3418.58
   10668.8  3430.79
   10681.2  3443.04
   10693.6  3455.31
   10706.0  3467.60
   10718.4  3479.93
   10730.8  3492.28
   10743.2  3504.65
   10755.6  3517.07
   10768.0  3529.51
   10780.4  3541.98
   10792.8  3554.48
   10805.2  3567.00
   10817.6  3579.55
   10830.0  3592.13
   10842.4  3604.74
   10854.8  3617.36
   10867.2  3630.03
   10879.6  3642.71
   10892.0  3655.43
   10904.4  3668.17
   10916.8  3680.94
   10929.2  3693.74
   10941.6  3706.57
   10954.0  3719.44
   10966.4  3732.32
   10978.8  3745.24
   10991.2  3758.18
   11003.6  3771.15
   11016.0  3784.15
   11028.4  3797.18
   11040.8  3810.23
   11053.2  3823.31
   11065.6  3836.41
   11078.0  3849.54
   11090.4  3862.70
   11102.8  3875.90
   11115.2  3889.13
   11127.6  3902.39
   11140.0  3915.68
   11152.4  3928.99
   11164.8  3942.33
   11177.2  3955.70
   11189.6  3969.09
   11202.0  3982.52
   11214.4  3995.97
   11226.8  4009.45
   11239.2  4022.95
   11251.6  4036.48
   11264.0  4050.04
   11276.4  4063.63
   11288.8  4077.26
   11301.2  4090.91
   11313.6  4104.60
   11326.0  4118.30
   11338.4  4132.04
   11350.8  4145.81
   11363.2  4159.60
   11375.6  4173.41
   11388.0  4187.27
   11400.4  4201.14
   11412.8  4215.04
   11425.2  4228.96
   11437.6  4242.93
   11450.0  4256.91
   11462.4  4270.93
   11474.8  4284.98
   11487.2  4299.05
   11499.6  4313.16
   11512.0  4327.30
   11524.4  4341.45
   11536.8  4355.64
   11549.2  4369.85
   11561.6  4384.10
   11574.0  4398.37
   11586.4  4412.66
   11598.8  4426.99
   11611.2  4441.34
   11623.6  4455.73
   11636.0  4470.14
   11648.4  4484.57
   11660.8  4499.05
   11673.2  4513.56
   11685.6  4528.09
   11698.0  4542.65
   11710.4  4557.24
   11722.8  4571.85
   11735.2  4586.49
   11747.6  4601.17
   11760.0  4615.86
   11772.4  4630.59
   11784.8  4645.34
   11797.2  4660.12
   11809.6  4674.93
   11822.0  4689.77
   11834.4  4704.63
   11846.8  4719.54
   11859.2  4734.47
   11871.6  4749.44
   11884.0  4764.42
   11896.4  4779.44
   11908.8  4794.48
   11921.2  4809.56
   11933.6  4824.66
   11946.0  4839.79
   11958.4  4854.93
   11970.8  4870.12
   11983.2  4885.33
   11995.6  4900.57
   12008.0  4915.84
   12020.4  4931.13
   12032.8  4946.46
   12045.2  4961.81
   12057.6  4977.20
   12070.0  4992.62
   12082.4  5008.05
   12094.8  5023.52
   12107.2  5039.02
   12119.6  5054.54
   12132.0  5070.09
   12144.4  5085.67
   12156.8  5101.28
   12169.2  5116.91
   12181.6  5132.56
   12194.0  5148.25
   12206.4  5163.97
   12218.8  5179.72
   12231.2  5195.51
   12243.6  5211.34
   12256.0  5227.18
   12268.4  5243.06
   12280.8  5258.96
   12293.2  5274.89
   12305.6  5290.85
   12318.0  5306.83
   12330.4  5322.84
   12342.8  5338.88
   12355.2  5354.95
   12367.6  5371.05
   12380.0  5387.18
   12392.4  5403.33
   12404.8  5419.50
   12417.2  5435.71
   12429.6  5451.96
   12442.0  5468.22
   12454.4  5484.52
   12466.8  5500.84
   12479.2  5517.19
   12491.6  5533.57
   12504.0  5549.97
   12516.4  5566.41
   12528.8  5582.87
   12541.2  5599.35
   12553.6  5615.88
   12566.0  5632.42
   12578.4  5648.98
   12590.8  5665.58
   12603.2  5682.20
   12615.6  5698.85
   12628.0  5715.56
   12640.4  5732.28
   12652.8  5749.03
   12665.2  5765.81
   12677.6  5782.62
   12690.0  5799.45
   12702.4  5816.31
   12714.8  5833.20
   12727.2  5850.12
   12739.6  5867.06
   12752.0  5884.03
   12764.4  5901.02
   12776.8  5918.04
   12789.2  5935.09
   12801.6  5952.17
   12814.0  5969.28
   12826.4  5986.42
   12838.8  6003.59
   12851.2  6020.78
   12863.6  6038.01
   12876.0  6055.26
   12888.4  6072.53
   12900.8  6089.84
   12913.2  6107.17
   12925.6  6124.52
   12938.0  6141.91
   12950.4  6159.32
   12962.8  6176.77
   12975.2  6194.24
   12987.6  6211.73
   13000.0  6229.25
