 Ni Density=8.902, Angle=90.deg
 Photon Energy (eV), Atten Length (microns)
   8279.60  26.0657
   8280.10  26.0702
   8280.60  26.0747
   8281.10  26.0793
   8281.60  26.0838
   8282.10  26.0883
   8282.60  26.0929
   8283.10  26.0974
   8283.60  26.1020
   8284.10  26.1065
   8284.60  26.1111
   8285.10  26.1156
   8285.60  26.1201
   8286.10  26.1247
   8286.60  26.1292
   8287.10  26.1337
   8287.60  26.1383
   8288.10  26.1428
   8288.60  26.1474
   8289.10  26.1519
   8289.60  26.1564
   8290.10  26.1610
   8290.60  26.1656
   8291.10  26.1701
   8291.60  26.1746
   8292.10  26.1792
   8292.60  26.1837
   8293.10  26.1883
   8293.60  26.1928
   8294.10  26.1974
   8294.60  26.2019
   8295.10  26.2065
   8295.60  26.2110
   8296.10  26.2156
   8296.60  26.2201
   8297.10  26.2247
   8297.60  26.2292
   8298.10  26.2338
   8298.60  26.2383
   8299.10  26.2429
   8299.60  26.2475
   8300.10  26.2520
   8300.60  26.2566
   8301.10  26.2611
   8301.60  26.2657
   8302.10  26.2702
   8302.60  26.2748
   8303.10  26.2794
   8303.60  26.2839
   8304.10  26.2885
   8304.60  26.2930
   8305.10  26.2976
   8305.60  26.3021
   8306.10  26.3067
   8306.60  26.3113
   8307.10  26.3158
   8307.60  26.3204
   8308.10  26.3250
   8308.60  26.3295
   8309.10  26.3341
   8309.60  26.3386
   8310.10  26.3432
   8310.60  26.3478
   8311.10  26.3523
   8311.60  26.3569
   8312.10  26.3615
   8312.60  26.3661
   8313.10  26.3706
   8313.60  26.3752
   8314.10  26.3798
   8314.60  26.3843
   8315.10  26.3889
   8315.60  26.3935
   8316.10  26.3980
   8316.60  26.4026
   8317.10  26.4072
   8317.60  26.4117
   8318.10  26.4163
   8318.60  26.4209
   8319.10  26.4255
   8319.60  26.4300
   8320.10  26.4346
   8320.60  26.4392
   8321.10  26.4438
   8321.60  26.4484
   8322.10  26.4529
   8322.60  26.4575
   8323.10  26.4621
   8323.60  26.4667
   8324.10  26.4713
   8324.60  26.4758
   8325.10  26.4804
   8325.60  26.4850
   8326.10  26.4896
   8326.60  26.4942
   8327.10  26.4987
   8327.60  26.5033
   8328.10  26.5079
   8328.60  26.5125
   8329.10  26.5171
   8329.60  26.5217
   8330.10  26.5263
   8330.60  26.5309
   8331.10  26.5355
   8331.60  26.5400
   8332.10  26.5446
   8332.60  26.5492
   8333.10  3.40038
   8333.60  3.40088
   8334.10  3.40138
   8334.60  3.40189
   8335.10  3.40239
   8335.60  3.40289
   8336.10  3.40340
   8336.60  3.40390
   8337.10  3.40440
   8337.60  3.40491
   8338.10  3.40540
   8338.60  3.40591
   8339.10  3.40641
   8339.60  3.40691
   8340.10  3.40742
   8340.60  3.40792
   8341.10  3.40843
   8341.60  3.40893
   8342.10  3.40943
   8342.60  3.40993
   8343.10  3.41044
   8343.60  3.41094
   8344.10  3.41144
   8344.60  3.41195
   8345.10  3.41245
   8345.60  3.41295
   8346.10  3.41346
   8346.60  3.41396
   8347.10  3.41447
   8347.60  3.41497
   8348.10  3.41547
   8348.60  3.41598
   8349.10  3.41648
   8349.60  3.41699
   8350.10  3.41748
   8350.60  3.41799
   8351.10  3.41850
   8351.60  3.41900
   8352.10  3.41951
   8352.60  3.42001
   8353.10  3.42051
   8353.60  3.42102
   8354.10  3.42152
   8354.60  3.42202
   8355.10  3.42253
   8355.60  3.42303
   8356.10  3.42354
   8356.60  3.42404
   8357.10  3.42455
   8357.60  3.42505
   8358.10  3.42556
   8358.60  3.42606
   8359.10  3.42656
   8359.60  3.42707
   8360.10  3.42757
   8360.60  3.42808
   8361.10  3.42858
   8361.60  3.42909
   8362.10  3.42959
   8362.60  3.43010
   8363.10  3.43060
   8363.60  3.43111
   8364.10  3.43161
   8364.60  3.43212
   8365.10  3.43262
   8365.60  3.43313
   8366.10  3.43364
   8366.60  3.43414
   8367.10  3.43464
   8367.60  3.43515
   8368.10  3.43565
   8368.60  3.43616
   8369.10  3.43667
   8369.60  3.43717
   8370.10  3.43768
   8370.60  3.43819
   8371.10  3.43869
   8371.60  3.43920
   8372.10  3.43970
   8372.60  3.44021
   8373.10  3.44071
   8373.60  3.44122
   8374.10  3.44172
   8374.60  3.44223
   8375.10  3.44274
   8375.60  3.44324
   8376.10  3.44375
   8376.60  3.44426
   8377.10  3.44476
   8377.60  3.44527
   8378.10  3.44578
   8378.60  3.44628
   8379.10  3.44679
   8379.60  3.44729
   8380.10  3.44780
   8380.60  3.44831
   8381.10  3.44881
   8381.60  3.44932
   8382.10  3.44983
   8382.60  3.45033
   8383.10  3.45084
   8383.60  3.45135
   8384.10  3.45185
   8384.60  3.45236
   8385.10  3.45287
   8385.60  3.45338
   8386.10  3.45388
   8386.60  3.45439
   8387.10  3.45490
   8387.60  3.45540
   8388.10  3.45591
   8388.60  3.45642
   8389.10  3.45693
   8389.60  3.45743
   8390.10  3.45794
   8390.60  3.45845
   8391.10  3.45895
   8391.60  3.45946
   8392.10  3.45997
   8392.60  3.46048
   8393.10  3.46098
   8393.60  3.46149
   8394.10  3.46200
   8394.60  3.46251
   8395.10  3.46302
   8395.60  3.46353
   8396.10  3.46403
   8396.60  3.46454
   8397.10  3.46505
   8397.60  3.46555
   8398.10  3.46607
   8398.60  3.46657
   8399.10  3.46708
   8399.60  3.46759
   8400.10  3.46810
   8400.60  3.46861
   8401.10  3.46911
   8401.60  3.46962
   8402.10  3.47013
   8402.60  3.47064
   8403.10  3.47115
   8403.60  3.47165
   8404.10  3.47217
   8404.60  3.47267
   8405.10  3.47319
   8405.60  3.47369
   8406.10  3.47420
   8406.60  3.47471
   8407.10  3.47522
   8407.60  3.47573
   8408.10  3.47624
   8408.60  3.47674
   8409.10  3.47725
   8409.60  3.47776
   8410.10  3.47827
   8410.60  3.47878
   8411.10  3.47929
   8411.60  3.47980
   8412.10  3.48031
   8412.60  3.48082
   8413.10  3.48133
   8413.60  3.48184
   8414.10  3.48235
   8414.60  3.48286
   8415.10  3.48337
   8415.60  3.48388
   8416.10  3.48439
   8416.60  3.48489
   8417.10  3.48540
   8417.60  3.48592
   8418.10  3.48642
   8418.60  3.48693
   8419.10  3.48745
   8419.60  3.48796
   8420.10  3.48846
   8420.60  3.48897
   8421.10  3.48949
   8421.60  3.49000
   8422.10  3.49050
   8422.60  3.49101
   8423.10  3.49153
   8423.60  3.49204
   8424.10  3.49255
   8424.60  3.49306
   8425.10  3.49357
   8425.60  3.49408
   8426.10  3.49459
   8426.60  3.49510
   8427.10  3.49561
   8427.60  3.49612
   8428.10  3.49663
   8428.60  3.49714
   8429.10  3.49765
   8429.60  3.49817
   8430.10  3.49868
   8430.60  3.49919
   8431.10  3.49970
   8431.60  3.50021
   8432.10  3.50072
   8432.60  3.50123
   8433.10  3.50174
   8433.60  3.50225
   8434.10  3.50276
   8434.60  3.50327
   8435.10  3.50379
   8435.60  3.50430
   8436.10  3.50481
   8436.60  3.50532
   8437.10  3.50583
   8437.60  3.50634
   8438.10  3.50686
   8438.60  3.50737
   8439.10  3.50788
   8439.60  3.50839
   8440.10  3.50890
   8440.60  3.50942
   8441.10  3.50993
   8441.60  3.51044
   8442.10  3.51095
   8442.60  3.51146
   8443.10  3.51198
   8443.60  3.51249
   8444.10  3.51300
   8444.60  3.51351
   8445.10  3.51403
   8445.60  3.51454
   8446.10  3.51505
   8446.60  3.51556
   8447.10  3.51607
   8447.60  3.51659
   8448.10  3.51710
   8448.60  3.51761
   8449.10  3.51812
   8449.60  3.51863
   8450.10  3.51915
   8450.60  3.51966
   8451.10  3.52018
   8451.60  3.52069
   8452.10  3.52120
   8452.60  3.52172
   8453.10  3.52223
   8453.60  3.52274
   8454.10  3.52325
   8454.60  3.52377
   8455.10  3.52428
   8455.60  3.52479
   8456.10  3.52531
   8456.60  3.52582
   8457.10  3.52633
   8457.60  3.52685
   8458.10  3.52736
   8458.60  3.52787
   8459.10  3.52839
   8459.60  3.52890
   8460.10  3.52941
   8460.60  3.52993
   8461.10  3.53044
   8461.60  3.53096
   8462.10  3.53147
   8462.60  3.53198
   8463.10  3.53249
   8463.60  3.53301
   8464.10  3.53352
   8464.60  3.53404
   8465.10  3.53455
   8465.60  3.53507
   8466.10  3.53558
   8466.60  3.53609
   8467.10  3.53661
   8467.60  3.53712
   8468.10  3.53764
   8468.60  3.53815
   8469.10  3.53867
   8469.60  3.53918
   8470.10  3.53969
   8470.60  3.54021
   8471.10  3.54072
   8471.60  3.54124
   8472.10  3.54175
   8472.60  3.54227
   8473.10  3.54279
   8473.60  3.54330
   8474.10  3.54381
   8474.60  3.54433
   8475.10  3.54484
   8475.60  3.54536
   8476.10  3.54587
   8476.60  3.54639
   8477.10  3.54691
   8477.60  3.54742
   8478.10  3.54793
   8478.60  3.54845
   8479.10  3.54896
   8479.60  3.54948
   8480.10  3.55000
   8480.60  3.55051
   8481.10  3.55102
   8481.60  3.55154
   8482.10  3.55206
   8482.60  3.55257
   8483.10  3.55309
   8483.60  3.55360
   8484.10  3.55412
   8484.60  3.55464
   8485.10  3.55515
   8485.60  3.55566
   8486.10  3.55618
   8486.60  3.55670
   8487.10  3.55722
   8487.60  3.55773
   8488.10  3.55825
   8488.60  3.55876
   8489.10  3.55928
   8489.60  3.55980
   8490.10  3.56031
   8490.60  3.56083
   8491.10  3.56135
   8491.60  3.56186
   8492.10  3.56238
   8492.60  3.56289
   8493.10  3.56341
   8493.60  3.56393
   8494.10  3.56444
   8494.60  3.56496
   8495.10  3.56548
   8495.60  3.56599
   8496.10  3.56651
   8496.60  3.56703
   8497.10  3.56755
   8497.60  3.56806
   8498.10  3.56858
   8498.60  3.56910
   8499.10  3.56961
   8499.60  3.57013
   8500.10  3.57065
   8500.60  3.57116
   8501.10  3.57168
   8501.60  3.57220
   8502.10  3.57271
   8502.60  3.57323
   8503.10  3.57375
   8503.60  3.57427
   8504.10  3.57479
   8504.60  3.57531
   8505.10  3.57582
   8505.60  3.57634
   8506.10  3.57686
   8506.60  3.57737
   8507.10  3.57789
   8507.60  3.57841
   8508.10  3.57893
   8508.60  3.57945
   8509.10  3.57996
   8509.60  3.58048
   8510.10  3.58100
   8510.60  3.58152
   8511.10  3.58204
   8511.60  3.58255
   8512.10  3.58307
   8512.60  3.58359
   8513.10  3.58411
   8513.60  3.58463
   8514.10  3.58514
   8514.60  3.58566
   8515.10  3.58619
   8515.60  3.58670
   8516.10  3.58722
   8516.60  3.58774
   8517.10  3.58826
   8517.60  3.58877
   8518.10  3.58930
   8518.60  3.58981
   8519.10  3.59033
   8519.60  3.59085
   8520.10  3.59137
   8520.60  3.59189
   8521.10  3.59241
   8521.60  3.59293
   8522.10  3.59345
   8522.60  3.59397
   8523.10  3.59448
   8523.60  3.59501
   8524.10  3.59552
   8524.60  3.59604
   8525.10  3.59656
   8525.60  3.59708
   8526.10  3.59760
   8526.60  3.59812
   8527.10  3.59864
   8527.60  3.59916
   8528.10  3.59968
   8528.60  3.60020
   8529.10  3.60072
   8529.60  3.60124
