 Ni Density=8.902, Angle=90.deg
 Photon Energy (eV), Atten Length (microns)
   7400.00  18.9130
   7411.20  18.9940
   7422.40  19.0752
   7433.60  19.1568
   7444.80  19.2387
   7456.00  19.3209
   7467.20  19.4033
   7478.40  19.4858
   7489.60  19.5687
   7500.80  19.6517
   7512.00  19.7350
   7523.20  19.8186
   7534.40  19.9023
   7545.60  19.9863
   7556.80  20.0706
   7568.00  20.1553
   7579.20  20.2401
   7590.40  20.3252
   7601.60  20.4106
   7612.80  20.4961
   7624.00  20.5819
   7635.20  20.6679
   7646.40  20.7542
   7657.60  20.8407
   7668.80  20.9274
   7680.00  21.0145
   7691.20  21.1020
   7702.40  21.1897
   7713.60  21.2775
   7724.80  21.3657
   7736.00  21.4541
   7747.20  21.5427
   7758.40  21.6315
   7769.60  21.7206
   7780.80  21.8100
   7792.00  21.8995
   7803.20  21.9895
   7814.40  22.0798
   7825.60  22.1704
   7836.80  22.2612
   7848.00  22.3522
   7859.20  22.4434
   7870.40  22.5349
   7881.60  22.6267
   7892.80  22.7187
   7904.00  22.8109
   7915.20  22.9034
   7926.40  22.9962
   7937.60  23.0895
   7948.80  23.1830
   7960.00  23.2768
   7971.20  23.3708
   7982.40  23.4651
   7993.60  23.5596
   8004.80  23.6544
   8016.00  23.7494
   8027.20  23.8447
   8038.40  23.9402
   8049.60  24.0359
   8060.80  24.1322
   8072.00  24.2288
   8083.20  24.3256
   8094.40  24.4226
   8105.60  24.5199
   8116.80  24.6174
   8128.00  24.7152
   8139.20  24.8133
   8150.40  24.9116
   8161.60  25.0102
   8172.80  25.1090
   8184.00  25.2081
   8195.20  25.3076
   8206.40  25.4074
   8217.60  25.5074
   8228.80  25.6076
   8240.00  25.7082
   8251.20  25.8090
   8262.40  25.9100
   8273.60  26.0113
   8284.80  26.1129
   8296.00  26.2147
   8307.20  26.3167
   8318.40  26.4191
   8329.60  26.5217
   8340.80  3.40812
   8352.00  3.41940
   8363.20  3.43070
   8374.40  3.44203
   8385.60  3.45338
   8396.80  3.46475
   8408.00  3.47613
   8419.20  3.48755
   8430.40  3.49898
   8441.60  3.51044
   8452.80  3.52192
   8464.00  3.53342
   8475.20  3.54495
   8486.40  3.55649
   8497.60  3.56806
   8508.80  3.57965
   8520.00  3.59127
   8531.20  3.60290
   8542.40  3.61456
   8553.60  3.62624
   8564.80  3.63795
   8576.00  3.64967
   8587.20  3.66145
   8598.40  3.67328
   8609.60  3.68513
   8620.80  3.69701
   8632.00  3.70891
   8643.20  3.72084
   8654.40  3.73279
   8665.60  3.74476
   8676.80  3.75675
   8688.00  3.76876
   8699.20  3.78080
   8710.40  3.79286
   8721.60  3.80495
   8732.80  3.81711
   8744.00  3.82931
   8755.20  3.84152
   8766.40  3.85376
   8777.60  3.86601
   8788.80  3.87830
   8800.00  3.89061
   8811.20  3.90294
   8822.40  3.91529
   8833.60  3.92767
   8844.80  3.94007
   8856.00  3.95250
   8867.20  3.96497
   8878.40  3.97749
   8889.60  3.99005
   8900.80  4.00263
   8912.00  4.01523
   8923.20  4.02785
   8934.40  4.04050
   8945.60  4.05317
   8956.80  4.06587
   8968.00  4.07859
   8979.20  4.09133
   8990.40  4.10410
   9001.60  4.11690
   9012.80  4.12975
   9024.00  4.14266
   9035.20  4.15559
   9046.40  4.16854
   9057.60  4.18151
   9068.80  4.19452
   9080.00  4.20754
   9091.20  4.22059
   9102.40  4.23366
   9113.60  4.24676
   9124.80  4.25988
   9136.00  4.27303
   9147.20  4.28620
   9158.40  4.29944
   9169.60  4.31273
   9180.80  4.32605
   9192.00  4.33939
   9203.20  4.35276
   9214.40  4.36615
   9225.60  4.37957
   9236.80  4.39301
   9248.00  4.40648
   9259.20  4.41997
   9270.40  4.43348
   9281.60  4.44702
   9292.80  4.46059
   9304.00  4.47420
   9315.20  4.48787
   9326.40  4.50157
   9337.60  4.51529
   9348.80  4.52904
   9360.00  4.54281
   9371.20  4.55661
   9382.40  4.57044
   9393.60  4.58428
   9404.80  4.59815
   9416.00  4.61205
   9427.20  4.62598
   9438.40  4.63993
   9449.60  4.65390
   9460.80  4.66796
   9472.00  4.68204
   9483.20  4.69615
   9494.40  4.71029
   9505.60  4.72444
   9516.80  4.73863
   9528.00  4.75284
   9539.20  4.76708
   9550.40  4.78134
   9561.60  4.79562
   9572.80  4.80994
   9584.00  4.82428
   9595.20  4.83865
   9606.40  4.85307
   9617.60  4.86756
   9628.80  4.88207
   9640.00  4.89661
   9651.20  4.91117
   9662.40  4.92577
   9673.60  4.94039
   9684.80  4.95504
   9696.00  4.96971
   9707.20  4.98440
   9718.40  4.99913
   9729.60  5.01388
   9740.80  5.02866
   9752.00  5.04346
   9763.20  5.05832
   9774.40  5.07321
   9785.60  5.08813
   9796.80  5.10308
   9808.00  5.11805
   9819.20  5.13306
   9830.40  5.14809
   9841.60  5.16314
   9852.80  5.17822
   9864.00  5.19333
   9875.20  5.20847
   9886.40  5.22364
   9897.60  5.23882
   9908.80  5.25404
   9920.00  5.26932
   9931.20  5.28467
   9942.40  5.30005
   9953.60  5.31545
   9964.80  5.33088
   9976.00  5.34634
   9987.20  5.36184
   9998.40  5.37735
   10009.6  5.39289
   10020.8  5.40846
   10032.0  5.42406
   10043.2  5.43968
   10054.4  5.45534
   10065.6  5.47102
   10076.8  5.48673
   10088.0  5.50252
   10099.2  5.51835
   10110.4  5.53419
   10121.6  5.55007
   10132.8  5.56597
   10144.0  5.58191
   10155.2  5.59787
   10166.4  5.61386
   10177.6  5.62987
   10188.8  5.64591
   10200.0  5.66198
   10211.2  5.67809
   10222.4  5.69422
   10233.6  5.71037
   10244.8  5.72659
   10256.0  5.74287
   10267.2  5.75917
   10278.4  5.77549
   10289.6  5.79185
   10300.8  5.80824
   10312.0  5.82465
   10323.2  5.84111
   10334.4  5.85758
   10345.6  5.87407
   10356.8  5.89061
   10368.0  5.90716
   10379.2  5.92376
   10390.4  5.94037
   10401.6  5.95701
   10412.8  5.97373
   10424.0  5.99049
   10435.2  6.00728
   10446.4  6.02410
   10457.6  6.04094
   10468.8  6.05782
   10480.0  6.07472
   10491.2  6.09166
   10502.4  6.10862
   10513.6  6.12561
   10524.8  6.14263
   10536.0  6.15968
   10547.2  6.17676
   10558.4  6.19387
   10569.6  6.21101
   10580.8  6.22821
   10592.0  6.24548
   10603.2  6.26276
   10614.4  6.28008
   10625.6  6.29743
   10636.8  6.31480
   10648.0  6.33221
   10659.2  6.34964
   10670.4  6.36710
   10681.6  6.38459
   10692.8  6.40212
   10704.0  6.41967
   10715.2  6.43726
   10726.4  6.45487
   10737.6  6.47251
   10748.8  6.49021
   10760.0  6.50797
   10771.2  6.52575
   10782.4  6.54357
   10793.6  6.56142
   10804.8  6.57930
   10816.0  6.59721
   10827.2  6.61515
   10838.4  6.63312
   10849.6  6.65111
   10860.8  6.66914
   10872.0  6.68721
   10883.2  6.70529
   10894.4  6.72341
   10905.6  6.74156
   10916.8  6.75975
   10928.0  6.77801
   10939.2  6.79631
   10950.4  6.81464
   10961.6  6.83300
   10972.8  6.85140
   10984.0  6.86982
   10995.2  6.88827
   11006.4  6.90676
   11017.6  6.92527
   11028.8  6.94382
   11040.0  6.96239
   11051.2  6.98100
   11062.4  6.99964
   11073.6  7.01830
   11084.8  7.03700
   11096.0  7.05574
   11107.2  7.07457
   11118.4  7.09343
   11129.6  7.11232
   11140.8  7.13123
   11152.0  7.15018
   11163.2  7.16917
   11174.4  7.18818
   11185.6  7.20722
   11196.8  7.22629
   11208.0  7.24540
   11219.2  7.26454
   11230.4  7.28371
   11241.6  7.30290
   11252.8  7.32213
   11264.0  7.34139
   11275.2  7.36070
   11286.4  7.38009
   11297.6  7.39950
   11308.8  7.41895
   11320.0  7.43843
   11331.2  7.45794
   11342.4  7.47749
   11353.6  7.49705
   11364.8  7.51666
   11376.0  7.53630
   11387.2  7.55597
   11398.4  7.57567
   11409.6  7.59541
   11420.8  7.61516
   11432.0  7.63496
   11443.2  7.65480
   11454.4  7.67466
   11465.6  7.69461
   11476.8  7.71458
   11488.0  7.73460
   11499.2  7.75465
   11510.4  7.77473
   11521.6  7.79485
   11532.8  7.81498
   11544.0  7.83516
   11555.2  7.85538
   11566.4  7.87562
   11577.6  7.89590
   11588.8  7.91621
   11600.0  7.93655
   11611.2  7.95691
   11622.4  7.97731
   11633.6  7.99775
   11644.8  8.01824
   11656.0  8.03880
   11667.2  8.05940
   11678.4  8.08003
   11689.6  8.10069
   11700.8  8.12138
   11712.0  8.14210
   11723.2  8.16286
   11734.4  8.18366
   11745.6  8.20448
   11756.8  8.22533
   11768.0  8.24622
   11779.2  8.26714
   11790.4  8.28811
   11801.6  8.30909
   11812.8  8.33011
   11824.0  8.35117
   11835.2  8.37230
   11846.4  8.39348
   11857.6  8.41469
   11868.8  8.43594
   11880.0  8.45722
   11891.2  8.47854
   11902.4  8.49990
   11913.6  8.52129
   11924.8  8.54270
   11936.0  8.56416
   11947.2  8.58564
   11958.4  8.60717
   11969.6  8.62871
   11980.8  8.65030
   11992.0  8.67193
   12003.2  8.69358
   12014.4  8.71526
   12025.6  8.73700
   12036.8  8.75882
   12048.0  8.78066
   12059.2  8.80253
   12070.4  8.82445
   12081.6  8.84639
   12092.8  8.86837
   12104.0  8.89037
   12115.2  8.91242
   12126.4  8.93450
   12137.6  8.95662
   12148.8  8.97876
   12160.0  9.00096
   12171.2  9.02317
   12182.4  9.04542
   12193.6  9.06771
   12204.8  9.09003
   12216.0  9.11238
   12227.2  9.13484
   12238.4  9.15733
   12249.6  9.17987
   12260.8  9.20243
   12272.0  9.22503
   12283.2  9.24766
   12294.4  9.27034
   12305.6  9.29303
   12316.8  9.31576
   12328.0  9.33854
   12339.2  9.36134
   12350.4  9.38419
   12361.6  9.40706
   12372.8  9.42998
   12384.0  9.45293
   12395.2  9.47591
   12406.4  9.49893
   12417.6  9.52200
   12428.8  9.54513
   12440.0  9.56831
   12451.2  9.59151
   12462.4  9.61476
   12473.6  9.63804
   12484.8  9.66135
   12496.0  9.68470
   12507.2  9.70809
   12518.4  9.73150
   12529.6  9.75496
   12540.8  9.77845
   12552.0  9.80198
   12563.2  9.82554
   12574.4  9.84914
   12585.6  9.87277
   12596.8  9.89644
   12608.0  9.92015
   12619.2  9.94392
   12630.4  9.96775
   12641.6  9.99162
   12652.8  10.0155
   12664.0  10.0395
   12675.2  10.0635
   12686.4  10.0875
   12697.6  10.1115
   12708.8  10.1356
   12720.0  10.1598
   12731.2  10.1839
   12742.4  10.2081
   12753.6  10.2323
   12764.8  10.2566
   12776.0  10.2809
   12787.2  10.3053
   12798.4  10.3296
   12809.6  10.3541
   12820.8  10.3785
   12832.0  10.4031
   12843.2  10.4276
   12854.4  10.4522
   12865.6  10.4769
   12876.8  10.5016
   12888.0  10.5263
   12899.2  10.5511
   12910.4  10.5759
   12921.6  10.6007
   12932.8  10.6256
   12944.0  10.6505
   12955.2  10.6754
   12966.4  10.7004
   12977.6  10.7254
   12988.8  10.7504
   13000.0  10.7755
