 O Density=1., Angle=90.deg
 Photon Energy (eV), Atten Length (microns)
   6800.00  533.491
   6814.40  536.983
   6828.80  540.488
   6843.20  544.010
   6857.60  547.548
   6872.00  551.105
   6886.40  554.677
   6900.80  558.264
   6915.20  561.867
   6929.60  565.485
   6944.00  569.119
   6958.40  572.768
   6972.80  576.435
   6987.20  580.119
   7001.60  583.818
   7016.00  587.533
   7030.40  591.264
   7044.80  595.011
   7059.20  598.774
   7073.60  602.552
   7088.00  606.349
   7102.40  610.163
   7116.80  613.994
   7131.20  617.842
   7145.60  621.705
   7160.00  625.584
   7174.40  629.478
   7188.80  633.389
   7203.20  637.318
   7217.60  641.265
   7232.00  645.228
   7246.40  649.208
   7260.80  653.204
   7275.20  657.215
   7289.60  661.244
   7304.00  665.289
   7318.40  669.350
   7332.80  673.430
   7347.20  677.526
   7361.60  681.638
   7376.00  685.766
   7390.40  689.911
   7404.80  694.073
   7419.20  698.252
   7433.60  702.451
   7448.00  706.672
   7462.40  710.909
   7476.80  715.164
   7491.20  719.435
   7505.60  723.724
   7520.00  728.030
   7534.40  732.352
   7548.80  736.692
   7563.20  741.049
   7577.60  745.424
   7592.00  749.816
   7606.40  754.226
   7620.80  758.651
   7635.20  763.094
   7649.60  767.555
   7664.00  772.033
   7678.40  776.532
   7692.80  781.053
   7707.20  785.590
   7721.60  790.145
   7736.00  794.718
   7750.40  799.307
   7764.80  803.916
   7779.20  808.540
   7793.60  813.184
   7808.00  817.847
   7822.40  822.528
   7836.80  827.228
   7851.20  831.945
   7865.60  836.679
   7880.00  841.431
   7894.40  846.202
   7908.80  850.989
   7923.20  855.796
   7937.60  860.619
   7952.00  865.461
   7966.40  870.321
   7980.80  875.197
   7995.20  880.093
   8009.60  885.007
   8024.00  889.942
   8038.40  894.894
   8052.80  899.868
   8067.20  904.867
   8081.60  909.884
   8096.00  914.920
   8110.40  919.973
   8124.80  925.046
   8139.20  930.138
   8153.60  935.249
   8168.00  940.376
   8182.40  945.525
   8196.80  950.696
   8211.20  955.885
   8225.60  961.093
   8240.00  966.322
   8254.40  971.567
   8268.80  976.832
   8283.20  982.117
   8297.60  987.419
   8312.00  992.741
   8326.40  998.087
   8340.80  1003.45
   8355.20  1008.84
   8369.60  1014.24
   8384.00  1019.66
   8398.40  1025.10
   8412.80  1030.57
   8427.20  1036.05
   8441.60  1041.54
   8456.00  1047.07
   8470.40  1052.61
   8484.80  1058.17
   8499.20  1063.75
   8513.60  1069.35
   8528.00  1074.97
   8542.40  1080.61
   8556.80  1086.27
   8571.20  1091.95
   8585.60  1097.65
   8600.00  1103.37
   8614.40  1109.12
   8628.80  1114.88
   8643.20  1120.66
   8657.60  1126.46
   8672.00  1132.29
   8686.40  1138.13
   8700.80  1143.99
   8715.20  1149.87
   8729.60  1155.77
   8744.00  1161.70
   8758.40  1167.65
   8772.80  1173.62
   8787.20  1179.60
   8801.60  1185.61
   8816.00  1191.64
   8830.40  1197.68
   8844.80  1203.75
   8859.20  1209.84
   8873.60  1215.95
   8888.00  1222.09
   8902.40  1228.24
   8916.80  1234.42
   8931.20  1240.61
   8945.60  1246.83
   8960.00  1253.07
   8974.40  1259.32
   8988.80  1265.60
   9003.20  1271.90
   9017.60  1278.22
   9032.00  1284.57
   9046.40  1290.93
   9060.80  1297.32
   9075.20  1303.72
   9089.60  1310.15
   9104.00  1316.60
   9118.40  1323.07
   9132.80  1329.56
   9147.20  1336.07
   9161.60  1342.61
   9176.00  1349.17
   9190.40  1355.74
   9204.80  1362.35
   9219.20  1368.97
   9233.60  1375.61
   9248.00  1382.28
   9262.40  1388.96
   9276.80  1395.67
   9291.20  1402.40
   9305.60  1409.15
   9320.00  1415.93
   9334.40  1422.72
   9348.80  1429.55
   9363.20  1436.39
   9377.60  1443.25
   9392.00  1450.13
   9406.40  1457.04
   9420.80  1463.96
   9435.20  1470.91
   9449.60  1477.88
   9464.00  1484.88
   9478.40  1491.90
   9492.80  1498.94
   9507.20  1506.00
   9521.60  1513.09
   9536.00  1520.19
   9550.40  1527.32
   9564.80  1534.47
   9579.20  1541.64
   9593.60  1548.84
   9608.00  1556.05
   9622.40  1563.30
   9636.80  1570.56
   9651.20  1577.85
   9665.60  1585.16
   9680.00  1592.49
   9694.40  1599.85
   9708.80  1607.22
   9723.20  1614.62
   9737.60  1622.04
   9752.00  1629.48
   9766.40  1636.95
   9780.80  1644.44
   9795.20  1651.96
   9809.60  1659.49
   9824.00  1667.05
   9838.40  1674.64
   9852.80  1682.24
   9867.20  1689.87
   9881.60  1697.51
   9896.00  1705.18
   9910.40  1712.87
   9924.80  1720.60
   9939.20  1728.35
   9953.60  1736.12
   9968.00  1743.91
   9982.40  1751.73
   9996.80  1759.57
   10011.2  1767.44
   10025.6  1775.33
   10040.0  1783.24
   10054.4  1791.18
   10068.8  1799.14
   10083.2  1807.12
   10097.6  1815.13
   10112.0  1823.17
   10126.4  1831.23
   10140.8  1839.31
   10155.2  1847.42
   10169.6  1855.54
   10184.0  1863.69
   10198.4  1871.87
   10212.8  1880.06
   10227.2  1888.28
   10241.6  1896.53
   10256.0  1904.80
   10270.4  1913.10
   10284.8  1921.42
   10299.2  1929.77
   10313.6  1938.14
   10328.0  1946.53
   10342.4  1954.95
   10356.8  1963.39
   10371.2  1971.85
   10385.6  1980.34
   10400.0  1988.85
   10414.4  1997.39
   10428.8  2005.95
   10443.2  2014.54
   10457.6  2023.15
   10472.0  2031.78
   10486.4  2040.44
   10500.8  2049.12
   10515.2  2057.83
   10529.6  2066.56
   10544.0  2075.31
   10558.4  2084.09
   10572.8  2092.89
   10587.2  2101.73
   10601.6  2110.58
   10616.0  2119.47
   10630.4  2128.37
   10644.8  2137.31
   10659.2  2146.26
   10673.6  2155.24
   10688.0  2164.24
   10702.4  2173.27
   10716.8  2182.32
   10731.2  2191.39
   10745.6  2200.49
   10760.0  2209.63
   10774.4  2218.78
   10788.8  2227.96
   10803.2  2237.16
   10817.6  2246.39
   10832.0  2255.64
   10846.4  2264.92
   10860.8  2274.22
   10875.2  2283.54
   10889.6  2292.89
   10904.0  2302.27
   10918.4  2311.67
   10932.8  2321.10
   10947.2  2330.56
   10961.6  2340.04
   10976.0  2349.55
   10990.4  2359.07
   11004.8  2368.63
   11019.2  2378.21
   11033.6  2387.81
   11048.0  2397.45
   11062.4  2407.10
   11076.8  2416.77
   11091.2  2426.48
   11105.6  2436.21
   11120.0  2445.98
   11134.4  2455.77
   11148.8  2465.58
   11163.2  2475.42
   11177.6  2485.28
   11192.0  2495.17
   11206.4  2505.09
   11220.8  2515.02
   11235.2  2524.99
   11249.6  2534.97
   11264.0  2544.99
   11278.4  2555.03
   11292.8  2565.10
   11307.2  2575.20
   11321.6  2585.32
   11336.0  2595.47
   11350.4  2605.64
   11364.8  2615.83
   11379.2  2626.06
   11393.6  2636.30
   11408.0  2646.58
   11422.4  2656.87
   11436.8  2667.20
   11451.2  2677.55
   11465.6  2687.93
   11480.0  2698.34
   11494.4  2708.77
   11508.8  2719.23
   11523.2  2729.71
   11537.6  2740.22
   11552.0  2750.76
   11566.4  2761.32
   11580.8  2771.91
   11595.2  2782.52
   11609.6  2793.15
   11624.0  2803.82
   11638.4  2814.50
   11652.8  2825.23
   11667.2  2835.98
   11681.6  2846.75
   11696.0  2857.55
   11710.4  2868.37
   11724.8  2879.22
   11739.2  2890.10
   11753.6  2901.00
   11768.0  2911.93
   11782.4  2922.88
   11796.8  2933.86
   11811.2  2944.86
   11825.6  2955.90
   11840.0  2966.96
   11854.4  2978.05
   11868.8  2989.17
   11883.2  3000.32
   11897.6  3011.49
   11912.0  3022.68
   11926.4  3033.91
   11940.8  3045.16
   11955.2  3056.43
   11969.6  3067.73
   11984.0  3079.06
   11998.4  3090.41
   12012.8  3101.79
   12027.2  3113.20
   12041.6  3124.64
   12056.0  3136.10
   12070.4  3147.59
   12084.8  3159.10
   12099.2  3170.65
   12113.6  3182.21
   12128.0  3193.80
   12142.4  3205.42
   12156.8  3217.07
   12171.2  3228.74
   12185.6  3240.44
   12200.0  3252.16
   12214.4  3263.91
   12228.8  3275.70
   12243.2  3287.52
   12257.6  3299.36
   12272.0  3311.24
   12286.4  3323.14
   12300.8  3335.06
   12315.2  3347.01
   12329.6  3358.99
   12344.0  3370.99
   12358.4  3383.02
   12372.8  3395.08
   12387.2  3407.16
   12401.6  3419.27
   12416.0  3431.41
   12430.4  3443.57
   12444.8  3455.76
   12459.2  3467.99
   12473.6  3480.23
   12488.0  3492.50
   12502.4  3504.80
   12516.8  3517.12
   12531.2  3529.48
   12545.6  3541.85
   12560.0  3554.26
   12574.4  3566.69
   12588.8  3579.15
   12603.2  3591.63
   12617.6  3604.15
   12632.0  3616.70
   12646.4  3629.27
   12660.8  3641.88
   12675.2  3654.51
   12689.6  3667.16
   12704.0  3679.84
   12718.4  3692.55
   12732.8  3705.29
   12747.2  3718.05
   12761.6  3730.84
   12776.0  3743.66
   12790.4  3756.50
   12804.8  3769.37
   12819.2  3782.26
   12833.6  3795.19
   12848.0  3808.14
   12862.4  3821.12
   12876.8  3834.13
   12891.2  3847.17
   12905.6  3860.23
   12920.0  3873.31
   12934.4  3886.43
   12948.8  3899.57
   12963.2  3912.73
   12977.6  3925.93
   12992.0  3939.15
   13006.4  3952.40
   13020.8  3965.67
   13035.2  3978.98
   13049.6  3992.34
   13064.0  4005.71
   13078.4  4019.11
   13092.8  4032.54
   13107.2  4046.00
   13121.6  4059.48
   13136.0  4072.98
   13150.4  4086.52
   13164.8  4100.09
   13179.2  4113.68
   13193.6  4127.29
   13208.0  4140.94
   13222.4  4154.61
   13236.8  4168.30
   13251.2  4182.03
   13265.6  4195.79
   13280.0  4209.57
   13294.4  4223.37
   13308.8  4237.21
   13323.2  4251.07
   13337.6  4264.96
   13352.0  4278.88
   13366.4  4292.83
   13380.8  4306.79
   13395.2  4320.79
   13409.6  4334.81
   13424.0  4348.87
   13438.4  4362.94
   13452.8  4377.05
   13467.2  4391.19
   13481.6  4405.36
   13496.0  4419.57
   13510.4  4433.79
   13524.8  4448.04
   13539.2  4462.32
   13553.6  4476.62
   13568.0  4490.96
   13582.4  4505.32
   13596.8  4519.71
   13611.2  4534.12
   13625.6  4548.56
   13640.0  4563.03
   13654.4  4577.52
   13668.8  4592.05
   13683.2  4606.60
   13697.6  4621.18
   13712.0  4635.79
   13726.4  4650.43
   13740.8  4665.09
   13755.2  4679.78
   13769.6  4694.49
   13784.0  4709.23
   13798.4  4724.01
   13812.8  4738.81
   13827.2  4753.63
   13841.6  4768.48
   13856.0  4783.35
   13870.4  4798.26
   13884.8  4813.19
   13899.2  4828.16
   13913.6  4843.16
   13928.0  4858.19
   13942.4  4873.25
   13956.8  4888.32
   13971.2  4903.43
   13985.6  4918.56
   14000.0  4933.73
