 Au Density=19.32, Angle=90.deg
 Photon Energy (eV), Atten Length (microns)
   7400.00  2.02616
   7411.20  2.03421
   7422.40  2.04227
   7433.60  2.05036
   7444.80  2.05847
   7456.00  2.06661
   7467.20  2.07476
   7478.40  2.08293
   7489.60  2.09112
   7500.80  2.09933
   7512.00  2.10757
   7523.20  2.11582
   7534.40  2.12409
   7545.60  2.13238
   7556.80  2.14070
   7568.00  2.14904
   7579.20  2.15741
   7590.40  2.16579
   7601.60  2.17420
   7612.80  2.18262
   7624.00  2.19106
   7635.20  2.19953
   7646.40  2.20801
   7657.60  2.21652
   7668.80  2.22504
   7680.00  2.23359
   7691.20  2.24215
   7702.40  2.25074
   7713.60  2.25935
   7724.80  2.26798
   7736.00  2.27662
   7747.20  2.28529
   7758.40  2.29398
   7769.60  2.30269
   7780.80  2.31142
   7792.00  2.32017
   7803.20  2.32894
   7814.40  2.33773
   7825.60  2.34654
   7836.80  2.35538
   7848.00  2.36423
   7859.20  2.37311
   7870.40  2.38200
   7881.60  2.39091
   7892.80  2.39985
   7904.00  2.40881
   7915.20  2.41778
   7926.40  2.42678
   7937.60  2.43580
   7948.80  2.44484
   7960.00  2.45391
   7971.20  2.46299
   7982.40  2.47209
   7993.60  2.48122
   8004.80  2.49036
   8016.00  2.49953
   8027.20  2.50871
   8038.40  2.51792
   8049.60  2.52715
   8060.80  2.53640
   8072.00  2.54568
   8083.20  2.55497
   8094.40  2.56429
   8105.60  2.57362
   8116.80  2.58298
   8128.00  2.59236
   8139.20  2.60176
   8150.40  2.61118
   8161.60  2.62062
   8172.80  2.63008
   8184.00  2.63957
   8195.20  2.64908
   8206.40  2.65861
   8217.60  2.66816
   8228.80  2.67774
   8240.00  2.68733
   8251.20  2.69695
   8262.40  2.70658
   8273.60  2.71624
   8284.80  2.72592
   8296.00  2.73563
   8307.20  2.74535
   8318.40  2.75509
   8329.60  2.76486
   8340.80  2.77466
   8352.00  2.78447
   8363.20  2.79430
   8374.40  2.80416
   8385.60  2.81404
   8396.80  2.82394
   8408.00  2.83386
   8419.20  2.84380
   8430.40  2.85377
   8441.60  2.86375
   8452.80  2.87376
   8464.00  2.88379
   8475.20  2.89384
   8486.40  2.90391
   8497.60  2.91400
   8508.80  2.92412
   8520.00  2.93426
   8531.20  2.94442
   8542.40  2.95460
   8553.60  2.96480
   8564.80  2.97502
   8576.00  2.98527
   8587.20  2.99554
   8598.40  3.00583
   8609.60  3.01613
   8620.80  3.02646
   8632.00  3.03681
   8643.20  3.04719
   8654.40  3.05759
   8665.60  3.06800
   8676.80  3.07844
   8688.00  3.08891
   8699.20  3.09939
   8710.40  3.10990
   8721.60  3.12042
   8732.80  3.13097
   8744.00  3.14154
   8755.20  3.15212
   8766.40  3.16274
   8777.60  3.17337
   8788.80  3.18402
   8800.00  3.19470
   8811.20  3.20540
   8822.40  3.21612
   8833.60  3.22687
   8844.80  3.23763
   8856.00  3.24842
   8867.20  3.25923
   8878.40  3.27005
   8889.60  3.28090
   8900.80  3.29177
   8912.00  3.30266
   8923.20  3.31357
   8934.40  3.32451
   8945.60  3.33547
   8956.80  3.34645
   8968.00  3.35745
   8979.20  3.36848
   8990.40  3.37953
   9001.60  3.39060
   9012.80  3.40169
   9024.00  3.41281
   9035.20  3.42395
   9046.40  3.43510
   9057.60  3.44628
   9068.80  3.45749
   9080.00  3.46871
   9091.20  3.47997
   9102.40  3.49124
   9113.60  3.50253
   9124.80  3.51385
   9136.00  3.52518
   9147.20  3.53655
   9158.40  3.54793
   9169.60  3.55933
   9180.80  3.57076
   9192.00  3.58221
   9203.20  3.59368
   9214.40  3.60518
   9225.60  3.61669
   9236.80  3.62823
   9248.00  3.63980
   9259.20  3.65138
   9270.40  3.66299
   9281.60  3.67462
   9292.80  3.68628
   9304.00  3.69795
   9315.20  3.70965
   9326.40  3.72137
   9337.60  3.73311
   9348.80  3.74488
   9360.00  3.75667
   9371.20  3.76848
   9382.40  3.78032
   9393.60  3.79217
   9404.80  3.80405
   9416.00  3.81596
   9427.20  3.82789
   9438.40  3.83984
   9449.60  3.85181
   9460.80  3.86380
   9472.00  3.87582
   9483.20  3.88786
   9494.40  3.89992
   9505.60  3.91200
   9516.80  3.92411
   9528.00  3.93624
   9539.20  3.94840
   9550.40  3.96058
   9561.60  3.97278
   9572.80  3.98500
   9584.00  3.99725
   9595.20  4.00952
   9606.40  4.02181
   9617.60  4.03412
   9628.80  4.04645
   9640.00  4.05881
   9651.20  4.07119
   9662.40  4.08359
   9673.60  4.09601
   9684.80  4.10847
   9696.00  4.12094
   9707.20  4.13343
   9718.40  4.14595
   9729.60  4.15849
   9740.80  4.17106
   9752.00  4.18365
   9763.20  4.19626
   9774.40  4.20888
   9785.60  4.22153
   9796.80  4.23421
   9808.00  4.24690
   9819.20  4.25963
   9830.40  4.27238
   9841.60  4.28514
   9852.80  4.29793
   9864.00  4.31074
   9875.20  4.32358
   9886.40  4.33645
   9897.60  4.34933
   9908.80  4.36224
   9920.00  4.37517
   9931.20  4.38811
   9942.40  4.40108
   9953.60  4.41406
   9964.80  4.42707
   9976.00  4.44011
   9987.20  4.45317
   9998.40  4.46625
   10009.6  4.47936
   10020.8  4.49249
   10032.0  4.50564
   10043.2  4.51882
   10054.4  4.53202
   10065.6  4.54524
   10076.8  4.55849
   10088.0  4.57174
   10099.2  4.58503
   10110.4  4.59833
   10121.6  4.61166
   10132.8  4.62501
   10144.0  4.63839
   10155.2  4.65178
   10166.4  4.66521
   10177.6  4.67865
   10188.8  4.69212
   10200.0  4.70562
   10211.2  4.71914
   10222.4  4.73268
   10233.6  4.74625
   10244.8  4.75983
   10256.0  4.77344
   10267.2  4.78706
   10278.4  4.80071
   10289.6  4.81438
   10300.8  4.82808
   10312.0  4.84180
   10323.2  4.85556
   10334.4  4.86932
   10345.6  4.88311
   10356.8  4.89694
   10368.0  4.91078
   10379.2  4.92465
   10390.4  4.93853
   10401.6  4.95245
   10412.8  4.96638
   10424.0  4.98033
   10435.2  4.99429
   10446.4  5.00829
   10457.6  5.02230
   10468.8  5.03635
   10480.0  5.05041
   10491.2  5.06451
   10502.4  5.07862
   10513.6  5.09275
   10524.8  5.10692
   10536.0  5.12111
   10547.2  5.13532
   10558.4  5.14955
   10569.6  5.16382
   10580.8  5.17808
   10592.0  5.19238
   10603.2  5.20670
   10614.4  5.22104
   10625.6  5.23540
   10636.8  5.24979
   10648.0  5.26421
   10659.2  5.27864
   10670.4  5.29310
   10681.6  5.30759
   10692.8  5.32210
   10704.0  5.33664
   10715.2  5.35120
   10726.4  5.36578
   10737.6  5.38039
   10748.8  5.39502
   10760.0  5.40965
   10771.2  5.42431
   10782.4  5.43900
   10793.6  5.45371
   10804.8  5.46844
   10816.0  5.48320
   10827.2  5.49799
   10838.4  5.51279
   10849.6  5.52763
   10860.8  5.54248
   10872.0  5.55737
   10883.2  5.57227
   10894.4  5.58720
   10905.6  5.60215
   10916.8  5.61714
   10928.0  5.63212
   10939.2  5.64713
   10950.4  5.66216
   10961.6  5.67722
   10972.8  5.69230
   10984.0  5.70741
   10995.2  5.72253
   11006.4  5.73769
   11017.6  5.75287
   11028.8  5.76807
   11040.0  5.78330
   11051.2  5.79855
   11062.4  5.81383
   11073.6  5.82913
   11084.8  5.84446
   11096.0  5.85981
   11107.2  5.87516
   11118.4  5.89055
   11129.6  5.90596
   11140.8  5.92138
   11152.0  5.93684
   11163.2  5.95232
   11174.4  5.96782
   11185.6  5.98336
   11196.8  5.99891
   11208.0  6.01449
   11219.2  6.03010
   11230.4  6.04572
   11241.6  6.06137
   11252.8  6.07705
   11264.0  6.09275
   11275.2  6.10849
   11286.4  6.12422
   11297.6  6.13997
   11308.8  6.15575
   11320.0  6.17155
   11331.2  6.18738
   11342.4  6.20323
   11353.6  6.21910
   11364.8  6.23500
   11376.0  6.25093
   11387.2  6.26689
   11398.4  6.28287
   11409.6  6.29887
   11420.8  6.31489
   11432.0  6.33095
   11443.2  6.34702
   11454.4  6.36313
   11465.6  6.37923
   11476.8  6.39534
   11488.0  6.41149
   11499.2  6.42767
   11510.4  6.44387
   11521.6  6.46009
   11532.8  6.47633
   11544.0  6.49260
   11555.2  6.50890
   11566.4  6.52522
   11577.6  6.54157
   11588.8  6.55794
   11600.0  6.57434
   11611.2  6.59075
   11622.4  6.60720
   11633.6  6.62367
   11644.8  6.64016
   11656.0  6.65665
   11667.2  6.67318
   11678.4  6.68972
   11689.6  6.70628
   11700.8  6.72287
   11712.0  6.73949
   11723.2  6.75613
   11734.4  6.77280
   11745.6  6.78949
   11756.8  6.80620
   11768.0  6.82295
   11779.2  6.83971
   11790.4  6.85651
   11801.6  6.87332
   11812.8  6.89017
   11824.0  6.90704
   11835.2  6.92393
   11846.4  6.94085
   11857.6  6.95778
   11868.8  6.97475
   11880.0  6.99175
   11891.2  7.00876
   11902.4  7.02582
   11913.6  7.04288
   11924.8  2.83200
   11936.0  2.83925
   11947.2  2.84650
   11958.4  2.85377
   11969.6  2.86105
   11980.8  2.86834
   11992.0  2.87564
   12003.2  2.88296
   12014.4  2.89028
   12025.6  2.89761
   12036.8  2.90496
   12048.0  2.91232
   12059.2  2.91968
   12070.4  2.92707
   12081.6  2.93445
   12092.8  2.94186
   12104.0  2.94927
   12115.2  2.95670
   12126.4  2.96414
   12137.6  2.97159
   12148.8  2.97905
   12160.0  2.98653
   12171.2  2.99401
   12182.4  3.00151
   12193.6  3.00902
   12204.8  3.01654
   12216.0  3.02407
   12227.2  3.03162
   12238.4  3.03918
   12249.6  3.04676
   12260.8  3.05434
   12272.0  3.06193
   12283.2  3.06954
   12294.4  3.07717
   12305.6  3.08479
   12316.8  3.09244
   12328.0  3.10009
   12339.2  3.10776
   12350.4  3.11544
   12361.6  3.12313
   12372.8  3.13084
   12384.0  3.13856
   12395.2  3.14628
   12406.4  3.15402
   12417.6  3.16177
   12428.8  3.16953
   12440.0  3.17731
   12451.2  3.18509
   12462.4  3.19289
   12473.6  3.20070
   12484.8  3.20852
   12496.0  3.21636
   12507.2  3.22420
   12518.4  3.23206
   12529.6  3.23993
   12540.8  3.24781
   12552.0  3.25571
   12563.2  3.26361
   12574.4  3.27154
   12585.6  3.27946
   12596.8  3.28741
   12608.0  3.29536
   12619.2  3.30333
   12630.4  3.31131
   12641.6  3.31930
   12652.8  3.32731
   12664.0  3.33532
   12675.2  3.34335
   12686.4  3.35139
   12697.6  3.35944
   12708.8  3.36751
   12720.0  3.37559
   12731.2  3.38368
   12742.4  3.39178
   12753.6  3.39989
   12764.8  3.40802
   12776.0  3.41616
   12787.2  3.42431
   12798.4  3.43247
   12809.6  3.44065
   12820.8  3.44884
   12832.0  3.45704
   12843.2  3.46524
   12854.4  3.47346
   12865.6  3.48170
   12876.8  3.48995
   12888.0  3.49821
   12899.2  3.50648
   12910.4  3.51477
   12921.6  3.52306
   12932.8  3.53137
   12944.0  3.53969
   12955.2  3.54803
   12966.4  3.55637
   12977.6  3.56473
   12988.8  3.57310
   13000.0  3.58149
