 C Density=2.2, Angle=90.deg
 Photon Energy (eV), Atten Length (microns)
   6800.00  623.945
   6814.40  628.084
   6828.80  632.238
   6843.20  636.413
   6857.60  640.605
   6872.00  644.821
   6886.40  649.054
   6900.80  653.305
   6915.20  657.575
   6929.60  661.863
   6944.00  666.170
   6958.40  670.495
   6972.80  674.841
   6987.20  679.209
   7001.60  683.596
   7016.00  688.001
   7030.40  692.425
   7044.80  696.868
   7059.20  701.329
   7073.60  705.809
   7088.00  710.309
   7102.40  714.831
   7116.80  719.371
   7131.20  723.931
   7145.60  728.509
   7160.00  733.105
   7174.40  737.720
   7188.80  742.356
   7203.20  747.013
   7217.60  751.691
   7232.00  756.389
   7246.40  761.106
   7260.80  765.842
   7275.20  770.597
   7289.60  775.372
   7304.00  780.165
   7318.40  784.980
   7332.80  789.817
   7347.20  794.672
   7361.60  799.547
   7376.00  804.441
   7390.40  809.354
   7404.80  814.287
   7419.20  819.239
   7433.60  824.216
   7448.00  829.216
   7462.40  834.235
   7476.80  839.276
   7491.20  844.334
   7505.60  849.413
   7520.00  854.513
   7534.40  859.631
   7548.80  864.770
   7563.20  869.932
   7577.60  875.117
   7592.00  880.320
   7606.40  885.544
   7620.80  890.786
   7635.20  896.049
   7649.60  901.333
   7664.00  906.636
   7678.40  911.962
   7692.80  917.312
   7707.20  922.682
   7721.60  928.071
   7736.00  933.482
   7750.40  938.912
   7764.80  944.364
   7779.20  949.834
   7793.60  955.327
   7808.00  960.845
   7822.40  966.385
   7836.80  971.947
   7851.20  977.529
   7865.60  983.131
   7880.00  988.753
   7894.40  994.398
   7908.80  1000.06
   7923.20  1005.75
   7937.60  1011.46
   7952.00  1017.19
   7966.40  1022.95
   7980.80  1028.72
   7995.20  1034.52
   8009.60  1040.34
   8024.00  1046.18
   8038.40  1052.04
   8052.80  1057.93
   8067.20  1063.84
   8081.60  1069.77
   8096.00  1075.73
   8110.40  1081.70
   8124.80  1087.70
   8139.20  1093.72
   8153.60  1099.76
   8168.00  1105.82
   8182.40  1111.90
   8196.80  1118.01
   8211.20  1124.14
   8225.60  1130.29
   8240.00  1136.47
   8254.40  1142.67
   8268.80  1148.88
   8283.20  1155.12
   8297.60  1161.38
   8312.00  1167.67
   8326.40  1173.98
   8340.80  1180.31
   8355.20  1186.67
   8369.60  1193.05
   8384.00  1199.45
   8398.40  1205.87
   8412.80  1212.31
   8427.20  1218.78
   8441.60  1225.26
   8456.00  1231.78
   8470.40  1238.32
   8484.80  1244.87
   8499.20  1251.45
   8513.60  1258.06
   8528.00  1264.68
   8542.40  1271.33
   8556.80  1278.00
   8571.20  1284.69
   8585.60  1291.40
   8600.00  1298.15
   8614.40  1304.91
   8628.80  1311.70
   8643.20  1318.51
   8657.60  1325.34
   8672.00  1332.19
   8686.40  1339.07
   8700.80  1345.96
   8715.20  1352.88
   8729.60  1359.83
   8744.00  1366.81
   8758.40  1373.81
   8772.80  1380.83
   8787.20  1387.87
   8801.60  1394.94
   8816.00  1402.03
   8830.40  1409.14
   8844.80  1416.27
   8859.20  1423.42
   8873.60  1430.61
   8888.00  1437.82
   8902.40  1445.05
   8916.80  1452.31
   8931.20  1459.59
   8945.60  1466.89
   8960.00  1474.21
   8974.40  1481.56
   8988.80  1488.93
   9003.20  1496.32
   9017.60  1503.74
   9032.00  1511.18
   9046.40  1518.65
   9060.80  1526.14
   9075.20  1533.65
   9089.60  1541.19
   9104.00  1548.75
   9118.40  1556.33
   9132.80  1563.93
   9147.20  1571.56
   9161.60  1579.22
   9176.00  1586.90
   9190.40  1594.61
   9204.80  1602.34
   9219.20  1610.09
   9233.60  1617.86
   9248.00  1625.67
   9262.40  1633.49
   9276.80  1641.33
   9291.20  1649.20
   9305.60  1657.09
   9320.00  1665.01
   9334.40  1672.96
   9348.80  1680.93
   9363.20  1688.92
   9377.60  1696.93
   9392.00  1704.96
   9406.40  1713.03
   9420.80  1721.11
   9435.20  1729.21
   9449.60  1737.34
   9464.00  1745.51
   9478.40  1753.69
   9492.80  1761.90
   9507.20  1770.14
   9521.60  1778.39
   9536.00  1786.67
   9550.40  1794.98
   9564.80  1803.30
   9579.20  1811.66
   9593.60  1820.03
   9608.00  1828.43
   9622.40  1836.87
   9636.80  1845.33
   9651.20  1853.81
   9665.60  1862.32
   9680.00  1870.85
   9694.40  1879.41
   9708.80  1887.98
   9723.20  1896.58
   9737.60  1905.21
   9752.00  1913.85
   9766.40  1922.53
   9780.80  1931.23
   9795.20  1939.95
   9809.60  1948.70
   9824.00  1957.47
   9838.40  1966.26
   9852.80  1975.08
   9867.20  1983.92
   9881.60  1992.78
   9896.00  2001.67
   9910.40  2010.58
   9924.80  2019.53
   9939.20  2028.50
   9953.60  2037.49
   9968.00  2046.51
   9982.40  2055.55
   9996.80  2064.62
   10011.2  2073.72
   10025.6  2082.84
   10040.0  2091.99
   10054.4  2101.17
   10068.8  2110.36
   10083.2  2119.59
   10097.6  2128.84
   10112.0  2138.13
   10126.4  2147.43
   10140.8  2156.75
   10155.2  2166.10
   10169.6  2175.48
   10184.0  2184.87
   10198.4  2194.30
   10212.8  2203.74
   10227.2  2213.21
   10241.6  2222.71
   10256.0  2232.24
   10270.4  2241.79
   10284.8  2251.37
   10299.2  2260.97
   10313.6  2270.59
   10328.0  2280.24
   10342.4  2289.92
   10356.8  2299.62
   10371.2  2309.34
   10385.6  2319.08
   10400.0  2328.85
   10414.4  2338.65
   10428.8  2348.48
   10443.2  2358.33
   10457.6  2368.20
   10472.0  2378.10
   10486.4  2388.03
   10500.8  2397.98
   10515.2  2407.95
   10529.6  2417.94
   10544.0  2427.96
   10558.4  2438.00
   10572.8  2448.07
   10587.2  2458.17
   10601.6  2468.29
   10616.0  2478.45
   10630.4  2488.62
   10644.8  2498.82
   10659.2  2509.04
   10673.6  2519.29
   10688.0  2529.56
   10702.4  2539.85
   10716.8  2550.17
   10731.2  2560.51
   10745.6  2570.88
   10760.0  2581.28
   10774.4  2591.70
   10788.8  2602.15
   10803.2  2612.62
   10817.6  2623.11
   10832.0  2633.64
   10846.4  2644.18
   10860.8  2654.74
   10875.2  2665.33
   10889.6  2675.95
   10904.0  2686.58
   10918.4  2697.24
   10932.8  2707.94
   10947.2  2718.67
   10961.6  2729.41
   10976.0  2740.18
   10990.4  2750.97
   11004.8  2761.78
   11019.2  2772.63
   11033.6  2783.49
   11048.0  2794.38
   11062.4  2805.28
   11076.8  2816.22
   11091.2  2827.18
   11105.6  2838.17
   11120.0  2849.19
   11134.4  2860.23
   11148.8  2871.30
   11163.2  2882.39
   11177.6  2893.50
   11192.0  2904.64
   11206.4  2915.80
   11220.8  2926.98
   11235.2  2938.19
   11249.6  2949.42
   11264.0  2960.67
   11278.4  2971.96
   11292.8  2983.27
   11307.2  2994.61
   11321.6  3005.97
   11336.0  3017.36
   11350.4  3028.76
   11364.8  3040.19
   11379.2  3051.65
   11393.6  3063.12
   11408.0  3074.63
   11422.4  3086.15
   11436.8  3097.69
   11451.2  3109.27
   11465.6  3120.87
   11480.0  3132.49
   11494.4  3144.14
   11508.8  3155.82
   11523.2  3167.51
   11537.6  3179.23
   11552.0  3190.98
   11566.4  3202.74
   11580.8  3214.53
   11595.2  3226.34
   11609.6  3238.17
   11624.0  3250.03
   11638.4  3261.91
   11652.8  3273.83
   11667.2  3285.77
   11681.6  3297.73
   11696.0  3309.71
   11710.4  3321.72
   11724.8  3333.75
   11739.2  3345.80
   11753.6  3357.87
   11768.0  3369.97
   11782.4  3382.09
   11796.8  3394.24
   11811.2  3406.40
   11825.6  3418.59
   11840.0  3430.81
   11854.4  3443.06
   11868.8  3455.33
   11883.2  3467.63
   11897.6  3479.94
   11912.0  3492.28
   11926.4  3504.64
   11940.8  3517.02
   11955.2  3529.43
   11969.6  3541.86
   11984.0  3554.31
   11998.4  3566.78
   12012.8  3579.27
   12027.2  3591.79
   12041.6  3604.34
   12056.0  3616.91
   12070.4  3629.50
   12084.8  3642.12
   12099.2  3654.75
   12113.6  3667.41
   12128.0  3680.09
   12142.4  3692.79
   12156.8  3705.52
   12171.2  3718.26
   12185.6  3731.03
   12200.0  3743.81
   12214.4  3756.62
   12228.8  3769.48
   12243.2  3782.35
   12257.6  3795.24
   12272.0  3808.16
   12286.4  3821.10
   12300.8  3834.06
   12315.2  3847.04
   12329.6  3860.04
   12344.0  3873.06
   12358.4  3886.11
   12372.8  3899.18
   12387.2  3912.27
   12401.6  3925.37
   12416.0  3938.51
   12430.4  3951.67
   12444.8  3964.85
   12459.2  3978.05
   12473.6  3991.28
   12488.0  4004.52
   12502.4  4017.79
   12516.8  4031.07
   12531.2  4044.38
   12545.6  4057.71
   12560.0  4071.06
   12574.4  4084.43
   12588.8  4097.83
   12603.2  4111.23
   12617.6  4124.67
   12632.0  4138.14
   12646.4  4151.62
   12660.8  4165.14
   12675.2  4178.67
   12689.6  4192.21
   12704.0  4205.78
   12718.4  4219.37
   12732.8  4232.99
   12747.2  4246.62
   12761.6  4260.27
   12776.0  4273.95
   12790.4  4287.64
   12804.8  4301.35
   12819.2  4315.08
   12833.6  4328.84
   12848.0  4342.62
   12862.4  4356.43
   12876.8  4370.24
   12891.2  4384.08
   12905.6  4397.95
   12920.0  4411.83
   12934.4  4425.72
   12948.8  4439.65
   12963.2  4453.58
   12977.6  4467.54
   12992.0  4481.52
   13006.4  4495.52
   13020.8  4509.53
   13035.2  4523.58
   13049.6  4537.66
   13064.0  4551.75
   13078.4  4565.86
   13092.8  4579.99
   13107.2  4594.15
   13121.6  4608.31
   13136.0  4622.50
   13150.4  4636.71
   13164.8  4650.94
   13179.2  4665.19
   13193.6  4679.45
   13208.0  4693.74
   13222.4  4708.04
   13236.8  4722.36
   13251.2  4736.71
   13265.6  4751.08
   13280.0  4765.47
   13294.4  4779.87
   13308.8  4794.29
   13323.2  4808.73
   13337.6  4823.19
   13352.0  4837.67
   13366.4  4852.17
   13380.8  4866.68
   13395.2  4881.22
   13409.6  4895.76
   13424.0  4910.34
   13438.4  4924.92
   13452.8  4939.53
   13467.2  4954.16
   13481.6  4968.81
   13496.0  4983.49
   13510.4  4998.18
   13524.8  5012.88
   13539.2  5027.61
   13553.6  5042.34
   13568.0  5057.11
   13582.4  5071.88
   13596.8  5086.67
   13611.2  5101.48
   13625.6  5116.31
   13640.0  5131.15
   13654.4  5146.02
   13668.8  5160.90
   13683.2  5175.80
   13697.6  5190.72
   13712.0  5205.66
   13726.4  5220.62
   13740.8  5235.58
   13755.2  5250.57
   13769.6  5265.57
   13784.0  5280.59
   13798.4  5295.63
   13812.8  5310.68
   13827.2  5325.76
   13841.6  5340.84
   13856.0  5355.93
   13870.4  5371.06
   13884.8  5386.19
   13899.2  5401.36
   13913.6  5416.53
   13928.0  5431.73
   13942.4  5446.95
   13956.8  5462.17
   13971.2  5477.41
   13985.6  5492.67
   14000.0  5507.96
