 Co Density=8.9, Angle=90.deg
 Photon Energy (eV), Atten Length (microns)
   7692.40  24.9635
   7692.50  24.9643
   7692.60  24.9652
   7692.70  24.9661
   7692.80  24.9669
   7692.90  24.9678
   7693.00  24.9687
   7693.10  24.9696
   7693.20  24.9705
   7693.30  24.9713
   7693.40  24.9722
   7693.50  24.9731
   7693.60  24.9740
   7693.70  24.9748
   7693.80  24.9757
   7693.90  24.9766
   7694.00  24.9775
   7694.10  24.9783
   7694.20  24.9792
   7694.30  24.9801
   7694.40  24.9810
   7694.50  24.9819
   7694.60  24.9827
   7694.70  24.9836
   7694.80  24.9845
   7694.90  24.9853
   7695.00  24.9862
   7695.10  24.9871
   7695.20  24.9880
   7695.30  24.9889
   7695.40  24.9897
   7695.50  24.9906
   7695.60  24.9915
   7695.70  24.9923
   7695.80  24.9932
   7695.90  24.9941
   7696.00  24.9950
   7696.10  24.9959
   7696.20  24.9967
   7696.30  24.9976
   7696.40  24.9985
   7696.50  24.9994
   7696.60  25.0003
   7696.70  25.0011
   7696.80  25.0020
   7696.90  25.0029
   7697.00  25.0037
   7697.10  25.0046
   7697.20  25.0055
   7697.30  25.0064
   7697.40  25.0073
   7697.50  25.0082
   7697.60  25.0090
   7697.70  25.0099
   7697.80  25.0108
   7697.90  25.0116
   7698.00  25.0125
   7698.10  25.0134
   7698.20  25.0143
   7698.30  25.0152
   7698.40  25.0160
   7698.50  25.0169
   7698.60  25.0178
   7698.70  25.0187
   7698.80  25.0196
   7698.90  25.0204
   7699.00  25.0213
   7699.10  25.0222
   7699.20  25.0230
   7699.30  25.0239
   7699.40  25.0248
   7699.50  25.0257
   7699.60  25.0266
   7699.70  25.0274
   7699.80  25.0283
   7699.90  25.0292
   7700.00  25.0301
   7700.10  25.0310
   7700.20  25.0318
   7700.30  25.0327
   7700.40  25.0336
   7700.50  25.0344
   7700.60  25.0353
   7700.70  25.0362
   7700.80  25.0371
   7700.90  25.0380
   7701.00  25.0388
   7701.10  25.0397
   7701.20  25.0406
   7701.30  25.0415
   7701.40  25.0424
   7701.50  25.0432
   7701.60  25.0441
   7701.70  25.0450
   7701.80  25.0459
   7701.90  25.0467
   7702.00  25.0476
   7702.10  25.0485
   7702.20  25.0494
   7702.30  25.0502
   7702.40  25.0511
   7702.50  25.0520
   7702.60  25.0529
   7702.70  25.0538
   7702.80  25.0546
   7702.90  25.0555
   7703.00  25.0564
   7703.10  25.0573
   7703.20  25.0582
   7703.30  25.0590
   7703.40  25.0599
   7703.50  25.0608
   7703.60  25.0616
   7703.70  25.0625
   7703.80  25.0634
   7703.90  25.0643
   7704.00  25.0652
   7704.10  25.0660
   7704.20  25.0669
   7704.30  25.0678
   7704.40  25.0687
   7704.50  25.0696
   7704.60  25.0704
   7704.70  25.0713
   7704.80  25.0722
   7704.90  25.0731
   7705.00  25.0740
   7705.10  25.0748
   7705.20  25.0757
   7705.30  25.0766
   7705.40  25.0775
   7705.50  25.0783
   7705.60  25.0792
   7705.70  25.0801
   7705.80  25.0810
   7705.90  25.0818
   7706.00  25.0827
   7706.10  25.0836
   7706.20  25.0845
   7706.30  25.0854
   7706.40  25.0862
   7706.50  25.0871
   7706.60  25.0880
   7706.70  25.0889
   7706.80  25.0898
   7706.90  25.0906
   7707.00  25.0915
   7707.10  25.0924
   7707.20  25.0933
   7707.30  25.0942
   7707.40  25.0950
   7707.50  25.0959
   7707.60  25.0968
   7707.70  25.0977
   7707.80  25.0986
   7707.90  25.0994
   7708.00  25.1003
   7708.10  25.1012
   7708.20  25.1021
   7708.30  25.1029
   7708.40  25.1038
   7708.50  25.1047
   7708.60  25.1056
   7708.70  25.1064
   7708.80  25.1073
   7708.90  9.31050
   7709.00  3.19678
   7709.10  3.19688
   7709.20  3.19698
   7709.30  3.19708
   7709.40  3.19718
   7709.50  3.19729
   7709.60  3.19739
   7709.70  3.19749
   7709.80  3.19759
   7709.90  3.19769
   7710.00  3.19780
   7710.10  3.19790
   7710.20  3.19800
   7710.30  3.19810
   7710.40  3.19820
   7710.50  3.19831
   7710.60  3.19841
   7710.70  3.19851
   7710.80  3.19861
   7710.90  3.19871
   7711.00  3.19882
   7711.10  3.19892
   7711.20  3.19902
   7711.30  3.19912
   7711.40  3.19922
   7711.50  3.19933
   7711.60  3.19943
   7711.70  3.19953
   7711.80  3.19963
   7711.90  3.19973
   7712.00  3.19983
   7712.10  3.19994
   7712.20  3.20004
   7712.30  3.20014
   7712.40  3.20024
   7712.50  3.20035
   7712.60  3.20045
   7712.70  3.20055
   7712.80  3.20065
   7712.90  3.20075
   7713.00  3.20086
   7713.10  3.20096
   7713.20  3.20106
   7713.30  3.20116
   7713.40  3.20126
   7713.50  3.20136
   7713.60  3.20146
   7713.70  3.20157
   7713.80  3.20167
   7713.90  3.20177
   7714.00  3.20187
   7714.10  3.20197
   7714.20  3.20208
   7714.30  3.20218
   7714.40  3.20228
   7714.50  3.20239
   7714.60  3.20248
   7714.70  3.20259
   7714.80  3.20269
   7714.90  3.20279
   7715.00  3.20290
   7715.10  3.20300
   7715.20  3.20310
   7715.30  3.20320
   7715.40  3.20330
   7715.50  3.20341
   7715.60  3.20351
   7715.70  3.20361
   7715.80  3.20371
   7715.90  3.20381
   7716.00  3.20392
   7716.10  3.20402
   7716.20  3.20412
   7716.30  3.20422
   7716.40  3.20432
   7716.50  3.20443
   7716.60  3.20453
   7716.70  3.20463
   7716.80  3.20473
   7716.90  3.20483
   7717.00  3.20494
   7717.10  3.20504
   7717.20  3.20514
   7717.30  3.20524
   7717.40  3.20534
   7717.50  3.20544
   7717.60  3.20555
   7717.70  3.20565
   7717.80  3.20575
   7717.90  3.20585
   7718.00  3.20595
   7718.10  3.20606
   7718.20  3.20616
   7718.30  3.20626
   7718.40  3.20636
   7718.50  3.20646
   7718.60  3.20657
   7718.70  3.20667
   7718.80  3.20677
   7718.90  3.20688
   7719.00  3.20697
   7719.10  3.20708
   7719.20  3.20718
   7719.30  3.20728
   7719.40  3.20739
   7719.50  3.20749
   7719.60  3.20759
   7719.70  3.20769
   7719.80  3.20779
   7719.90  3.20790
   7720.00  3.20800
   7720.10  3.20810
   7720.20  3.20820
   7720.30  3.20830
   7720.40  3.20840
   7720.50  3.20851
   7720.60  3.20861
   7720.70  3.20871
   7720.80  3.20881
   7720.90  3.20891
   7721.00  3.20902
   7721.10  3.20912
   7721.20  3.20922
   7721.30  3.20933
   7721.40  3.20943
   7721.50  3.20953
   7721.60  3.20963
   7721.70  3.20973
   7721.80  3.20984
   7721.90  3.20994
   7722.00  3.21004
   7722.10  3.21014
   7722.20  3.21024
   7722.30  3.21034
   7722.40  3.21045
   7722.50  3.21055
   7722.60  3.21065
   7722.70  3.21076
   7722.80  3.21086
   7722.90  3.21096
   7723.00  3.21106
   7723.10  3.21116
   7723.20  3.21127
   7723.30  3.21137
   7723.40  3.21147
   7723.50  3.21157
   7723.60  3.21167
   7723.70  3.21178
   7723.80  3.21188
   7723.90  3.21198
   7724.00  3.21208
   7724.10  3.21219
   7724.20  3.21229
   7724.30  3.21239
   7724.40  3.21249
   7724.50  3.21259
   7724.60  3.21270
   7724.70  3.21280
   7724.80  3.21290
   7724.90  3.21300
   7725.00  3.21310
   7725.10  3.21321
   7725.20  3.21331
   7725.30  3.21341
   7725.40  3.21351
   7725.50  3.21362
   7725.60  3.21372
   7725.70  3.21382
   7725.80  3.21392
   7725.90  3.21402
   7726.00  3.21413
   7726.10  3.21423
   7726.20  3.21433
   7726.30  3.21443
   7726.40  3.21454
   7726.50  3.21464
   7726.60  3.21474
   7726.70  3.21484
   7726.80  3.21494
   7726.90  3.21505
   7727.00  3.21515
   7727.10  3.21525
   7727.20  3.21536
   7727.30  3.21546
   7727.40  3.21556
   7727.50  3.21566
   7727.60  3.21576
   7727.70  3.21586
   7727.80  3.21597
   7727.90  3.21607
   7728.00  3.21617
   7728.10  3.21628
   7728.20  3.21637
   7728.30  3.21648
   7728.40  3.21658
   7728.50  3.21668
   7728.60  3.21679
   7728.70  3.21689
   7728.80  3.21699
   7728.90  3.21709
   7729.00  3.21720
   7729.10  3.21729
   7729.20  3.21740
   7729.30  3.21750
   7729.40  3.21760
   7729.50  3.21771
   7729.60  3.21781
   7729.70  3.21791
   7729.80  3.21801
   7729.90  3.21812
   7730.00  3.21822
   7730.10  3.21832
   7730.20  3.21842
   7730.30  3.21852
   7730.40  3.21863
   7730.50  3.21873
   7730.60  3.21883
   7730.70  3.21893
   7730.80  3.21904
   7730.90  3.21914
   7731.00  3.21924
   7731.10  3.21934
   7731.20  3.21944
   7731.30  3.21955
   7731.40  3.21965
   7731.50  3.21975
   7731.60  3.21986
   7731.70  3.21996
   7731.80  3.22006
   7731.90  3.22016
   7732.00  3.22026
   7732.10  3.22036
   7732.20  3.22047
   7732.30  3.22057
   7732.40  3.22067
   7732.50  3.22078
   7732.60  3.22088
   7732.70  3.22098
   7732.80  3.22108
   7732.90  3.22118
   7733.00  3.22129
   7733.10  3.22139
   7733.20  3.22149
   7733.30  3.22159
   7733.40  3.22170
   7733.50  3.22180
   7733.60  3.22190
   7733.70  3.22200
   7733.80  3.22211
   7733.90  3.22221
   7734.00  3.22231
   7734.10  3.22242
   7734.20  3.22252
   7734.30  3.22262
   7734.40  3.22272
   7734.50  3.22282
   7734.60  3.22292
   7734.70  3.22303
   7734.80  3.22313
   7734.90  3.22323
   7735.00  3.22334
   7735.10  3.22344
   7735.20  3.22354
   7735.30  3.22364
   7735.40  3.22375
   7735.50  3.22385
   7735.60  3.22395
   7735.70  3.22405
   7735.80  3.22415
   7735.90  3.22426
   7736.00  3.22436
   7736.10  3.22446
   7736.20  3.22456
   7736.30  3.22467
   7736.40  3.22477
   7736.50  3.22487
   7736.60  3.22497
   7736.70  3.22508
   7736.80  3.22518
   7736.90  3.22528
   7737.00  3.22539
   7737.10  3.22548
   7737.20  3.22559
   7737.30  3.22569
   7737.40  3.22579
   7737.50  3.22589
   7737.60  3.22600
   7737.70  3.22610
   7737.80  3.22620
   7737.90  3.22631
   7738.00  3.22641
   7738.10  3.22651
   7738.20  3.22661
   7738.30  3.22672
   7738.40  3.22682
   7738.50  3.22692
   7738.60  3.22702
   7738.70  3.22712
   7738.80  3.22723
   7738.90  3.22733
   7739.00  3.22743
   7739.10  3.22753
   7739.20  3.22764
   7739.30  3.22774
   7739.40  3.22784
   7739.50  3.22794
   7739.60  3.22805
   7739.70  3.22815
   7739.80  3.22825
   7739.90  3.22836
   7740.00  3.22846
   7740.10  3.22856
   7740.20  3.22866
   7740.30  3.22877
   7740.40  3.22887
   7740.50  3.22897
   7740.60  3.22907
   7740.70  3.22917
   7740.80  3.22927
   7740.90  3.22938
   7741.00  3.22948
   7741.10  3.22958
   7741.20  3.22969
   7741.30  3.22979
   7741.40  3.22989
   7741.50  3.22999
   7741.60  3.23010
   7741.70  3.23020
   7741.80  3.23030
   7741.90  3.23040
   7742.00  3.23051
   7742.10  3.23061
   7742.20  3.23071
   7742.30  3.23082
   7742.40  3.23092
