 Co Density=8.9, Angle=90.deg
 Photon Energy (eV), Atten Length (microns)
   6800.00  17.8765
   6814.40  17.9796
   6828.80  18.0831
   6843.20  18.1870
   6857.60  18.2913
   6872.00  18.3958
   6886.40  18.5007
   6900.80  18.6060
   6915.20  18.7116
   6929.60  18.8177
   6944.00  18.9241
   6958.40  19.0309
   6972.80  19.1380
   6987.20  19.2455
   7001.60  19.3533
   7016.00  19.4615
   7030.40  19.5701
   7044.80  19.6791
   7059.20  19.7884
   7073.60  19.8982
   7088.00  20.0082
   7102.40  20.1186
   7116.80  20.2294
   7131.20  20.3405
   7145.60  20.4521
   7160.00  20.5640
   7174.40  20.6763
   7188.80  20.7890
   7203.20  20.9020
   7217.60  21.0153
   7232.00  21.1291
   7246.40  21.2432
   7260.80  21.3577
   7275.20  21.4726
   7289.60  21.5879
   7304.00  21.7035
   7318.40  21.8195
   7332.80  21.9357
   7347.20  22.0524
   7361.60  22.1694
   7376.00  22.2868
   7390.40  22.4047
   7404.80  22.5229
   7419.20  22.6415
   7433.60  22.7604
   7448.00  22.8797
   7462.40  22.9994
   7476.80  23.1195
   7491.20  23.2399
   7505.60  23.3608
   7520.00  23.4820
   7534.40  23.6037
   7548.80  23.7257
   7563.20  23.8480
   7577.60  23.9708
   7592.00  24.0939
   7606.40  24.2174
   7620.80  24.3414
   7635.20  24.4657
   7649.60  24.5904
   7664.00  24.7155
   7678.40  24.8410
   7692.80  24.9669
   7707.20  25.0933
   7721.60  3.20963
   7736.00  3.22436
   7750.40  3.23913
   7764.80  3.25394
   7779.20  3.26878
   7793.60  3.28367
   7808.00  3.29860
   7822.40  3.31356
   7836.80  3.32857
   7851.20  3.34362
   7865.60  3.35871
   7880.00  3.37384
   7894.40  3.38901
   7908.80  3.40422
   7923.20  3.41948
   7937.60  3.43486
   7952.00  3.45028
   7966.40  3.46574
   7980.80  3.48123
   7995.20  3.49677
   8009.60  3.51235
   8024.00  3.52798
   8038.40  3.54364
   8052.80  3.55937
   8067.20  3.57520
   8081.60  3.59108
   8096.00  3.60700
   8110.40  3.62296
   8124.80  3.63896
   8139.20  3.65501
   8153.60  3.67109
   8168.00  3.68722
   8182.40  3.70341
   8196.80  3.71972
   8211.20  3.73606
   8225.60  3.75244
   8240.00  3.76888
   8254.40  3.78535
   8268.80  3.80187
   8283.20  3.81843
   8297.60  3.83503
   8312.00  3.85168
   8326.40  3.86843
   8340.80  3.88523
   8355.20  3.90208
   8369.60  3.91896
   8384.00  3.93589
   8398.40  3.95286
   8412.80  3.96988
   8427.20  3.98694
   8441.60  4.00405
   8456.00  4.02127
   8470.40  4.03856
   8484.80  4.05590
   8499.20  4.07328
   8513.60  4.09071
   8528.00  4.10818
   8542.40  4.12570
   8556.80  4.14326
   8571.20  4.16087
   8585.60  4.17854
   8600.00  4.19631
   8614.40  4.21412
   8628.80  4.23198
   8643.20  4.24989
   8657.60  4.26784
   8672.00  4.28584
   8686.40  4.30389
   8700.80  4.32197
   8715.20  4.34011
   8729.60  4.35834
   8744.00  4.37666
   8758.40  4.39502
   8772.80  4.41343
   8787.20  4.43189
   8801.60  4.45038
   8816.00  4.46894
   8830.40  4.48753
   8844.80  4.50618
   8859.20  4.52486
   8873.60  4.54366
   8888.00  4.56252
   8902.40  4.58142
   8916.80  4.60037
   8931.20  4.61937
   8945.60  4.63841
   8960.00  4.65751
   8974.40  4.67666
   8988.80  4.69584
   9003.20  4.71508
   9017.60  4.73443
   9032.00  4.75383
   9046.40  4.77329
   9060.80  4.79278
   9075.20  4.81233
   9089.60  4.83194
   9104.00  4.85159
   9118.40  4.87128
   9132.80  4.89103
   9147.20  4.91082
   9161.60  4.93073
   9176.00  4.95072
   9190.40  4.97075
   9204.80  4.99084
   9219.20  5.01098
   9233.60  5.03116
   9248.00  5.05140
   9262.40  5.07168
   9276.80  5.09202
   9291.20  5.11240
   9305.60  5.13286
   9320.00  5.15343
   9334.40  5.17403
   9348.80  5.19469
   9363.20  5.21540
   9377.60  5.23615
   9392.00  5.25696
   9406.40  5.27783
   9420.80  5.29873
   9435.20  5.31969
   9449.60  5.34070
   9464.00  5.36184
   9478.40  5.38304
   9492.80  5.40428
   9507.20  5.42557
   9521.60  5.44692
   9536.00  5.46832
   9550.40  5.48976
   9564.80  5.51127
   9579.20  5.53282
   9593.60  5.55442
   9608.00  5.57611
   9622.40  5.59792
   9636.80  5.61977
   9651.20  5.64167
   9665.60  5.66364
   9680.00  5.68565
   9694.40  5.70772
   9708.80  5.72983
   9723.20  5.75200
   9737.60  5.77422
   9752.00  5.79649
   9766.40  5.81885
   9780.80  5.84127
   9795.20  5.86376
   9809.60  5.88628
   9824.00  5.90888
   9838.40  5.93152
   9852.80  5.95420
   9867.20  5.97696
   9881.60  5.99975
   9896.00  6.02261
   9910.40  6.04551
   9924.80  6.06854
   9939.20  6.09165
   9953.60  6.11482
   9968.00  6.13804
   9982.40  6.16132
   9996.80  6.18465
   10011.2  6.20805
   10025.6  6.23149
   10040.0  6.25498
   10054.4  6.27854
   10068.8  6.30214
   10083.2  6.32584
   10097.6  6.34962
   10112.0  6.37347
   10126.4  6.39736
   10140.8  6.42132
   10155.2  6.44532
   10169.6  6.46939
   10184.0  6.49350
   10198.4  6.51768
   10212.8  6.54190
   10227.2  6.56620
   10241.6  6.59055
   10256.0  6.61504
   10270.4  6.63958
   10284.8  6.66417
   10299.2  6.68882
   10313.6  6.71353
   10328.0  6.73829
   10342.4  6.76312
   10356.8  6.78799
   10371.2  6.81293
   10385.6  6.83792
   10400.0  6.86297
   10414.4  6.88813
   10428.8  6.91337
   10443.2  6.93865
   10457.6  6.96400
   10472.0  6.98941
   10486.4  7.01488
   10500.8  7.04041
   10515.2  7.06599
   10529.6  7.09163
   10544.0  7.11732
   10558.4  7.14308
   10572.8  7.16889
   10587.2  7.19484
   10601.6  7.22084
   10616.0  7.24691
   10630.4  7.27303
   10644.8  7.29922
   10659.2  7.32546
   10673.6  7.35176
   10688.0  7.37811
   10702.4  7.40453
   10716.8  7.43101
   10731.2  7.45754
   10745.6  7.48414
   10760.0  7.51088
   10774.4  7.53767
   10788.8  7.56451
   10803.2  7.59142
   10817.6  7.61839
   10832.0  7.64542
   10846.4  7.67251
   10860.8  7.69965
   10875.2  7.72685
   10889.6  7.75413
   10904.0  7.78144
   10918.4  7.80884
   10932.8  7.83636
   10947.2  7.86395
   10961.6  7.89159
   10976.0  7.91930
   10990.4  7.94706
   11004.8  7.97488
   11019.2  8.00278
   11033.6  8.03072
   11048.0  8.05874
   11062.4  8.08680
   11076.8  8.11493
   11091.2  8.14313
   11105.6  8.17144
   11120.0  8.19984
   11134.4  8.22831
   11148.8  8.25683
   11163.2  8.28542
   11177.6  8.31405
   11192.0  8.34276
   11206.4  8.37154
   11220.8  8.40037
   11235.2  8.42926
   11249.6  8.45822
   11264.0  8.48723
   11278.4  8.51634
   11292.8  8.54556
   11307.2  8.57485
   11321.6  8.60420
   11336.0  8.63361
   11350.4  8.66308
   11364.8  8.69261
   11379.2  8.72221
   11393.6  8.75187
   11408.0  8.78161
   11422.4  8.81138
   11436.8  8.84124
   11451.2  8.87116
   11465.6  8.90119
   11480.0  8.93130
   11494.4  8.96147
   11508.8  8.99171
   11523.2  9.02201
   11537.6  9.05239
   11552.0  9.08282
   11566.4  9.11331
   11580.8  9.14388
   11595.2  9.17450
   11609.6  9.20518
   11624.0  9.23594
   11638.4  9.26675
   11652.8  9.29770
   11667.2  9.32873
   11681.6  9.35981
   11696.0  9.39097
   11710.4  9.42219
   11724.8  9.45348
   11739.2  9.48484
   11753.6  9.51624
   11768.0  9.54773
   11782.4  9.57927
   11796.8  9.61089
   11811.2  9.64256
   11825.6  9.67431
   11840.0  9.70618
   11854.4  9.73813
   11868.8  9.77016
   11883.2  9.80226
   11897.6  9.83442
   11912.0  9.86664
   11926.4  9.89893
   11940.8  9.93129
   11955.2  9.96371
   11969.6  9.99620
   11984.0  10.0288
   11998.4  10.0614
   12012.8  10.0941
   12027.2  10.1269
   12041.6  10.1598
   12056.0  10.1927
   12070.4  10.2257
   12084.8  10.2588
   12099.2  10.2920
   12113.6  10.3252
   12128.0  10.3585
   12142.4  10.3919
   12156.8  10.4253
   12171.2  10.4588
   12185.6  10.4924
   12200.0  10.5260
   12214.4  10.5597
   12228.8  10.5936
   12243.2  10.6275
   12257.6  10.6615
   12272.0  10.6956
   12286.4  10.7297
   12300.8  10.7639
   12315.2  10.7982
   12329.6  10.8325
   12344.0  10.8669
   12358.4  10.9014
   12372.8  10.9360
   12387.2  10.9706
   12401.6  11.0053
   12416.0  11.0401
   12430.4  11.0749
   12444.8  11.1099
   12459.2  11.1449
   12473.6  11.1800
   12488.0  11.2152
   12502.4  11.2505
   12516.8  11.2858
   12531.2  11.3212
   12545.6  11.3566
   12560.0  11.3921
   12574.4  11.4277
   12588.8  11.4634
   12603.2  11.4991
   12617.6  11.5350
   12632.0  11.5709
   12646.4  11.6069
   12660.8  11.6430
   12675.2  11.6792
   12689.6  11.7155
   12704.0  11.7518
   12718.4  11.7881
   12732.8  11.8246
   12747.2  11.8611
   12761.6  11.8977
   12776.0  11.9344
   12790.4  11.9711
   12804.8  12.0080
   12819.2  12.0448
   12833.6  12.0819
   12848.0  12.1190
   12862.4  12.1561
   12876.8  12.1934
   12891.2  12.2307
   12905.6  12.2681
   12920.0  12.3055
   12934.4  12.3430
   12948.8  12.3806
   12963.2  12.4183
   12977.6  12.4560
   12992.0  12.4939
   13006.4  12.5318
   13020.8  12.5697
   13035.2  12.6078
   13049.6  12.6460
   13064.0  12.6843
   13078.4  12.7226
   13092.8  12.7611
   13107.2  12.7996
   13121.6  12.8381
   13136.0  12.8768
   13150.4  12.9155
   13164.8  12.9543
   13179.2  12.9932
   13193.6  13.0321
   13208.0  13.0711
   13222.4  13.1102
   13236.8  13.1494
   13251.2  13.1887
   13265.6  13.2281
   13280.0  13.2675
   13294.4  13.3070
   13308.8  13.3466
   13323.2  13.3863
   13337.6  13.4261
   13352.0  13.4659
   13366.4  13.5058
   13380.8  13.5458
   13395.2  13.5858
   13409.6  13.6259
   13424.0  13.6662
   13438.4  13.7064
   13452.8  13.7468
   13467.2  13.7873
   13481.6  13.8279
   13496.0  13.8686
   13510.4  13.9094
   13524.8  13.9502
   13539.2  13.9911
   13553.6  14.0320
   13568.0  14.0731
   13582.4  14.1142
   13596.8  14.1554
   13611.2  14.1967
   13625.6  14.2381
   13640.0  14.2795
   13654.4  14.3210
   13668.8  14.3626
   13683.2  14.4043
   13697.6  14.4462
   13712.0  14.4880
   13726.4  14.5300
   13740.8  14.5720
   13755.2  14.6141
   13769.6  14.6563
   13784.0  14.6986
   13798.4  14.7409
   13812.8  14.7834
   13827.2  14.8259
   13841.6  14.8685
   13856.0  14.9111
   13870.4  14.9539
   13884.8  14.9967
   13899.2  15.0396
   13913.6  15.0827
   13928.0  15.1258
   13942.4  15.1690
   13956.8  15.2123
   13971.2  15.2557
   13985.6  15.2991
   14000.0  15.3427
