 Pt Density=21.45, Angle=90.deg
 Photon Energy (eV), Atten Length (microns)
   7400.00  1.93800
   7411.20  1.94552
   7422.40  1.95305
   7433.60  1.96060
   7444.80  1.96817
   7456.00  1.97575
   7467.20  1.98335
   7478.40  1.99097
   7489.60  1.99861
   7500.80  2.00627
   7512.00  2.01394
   7523.20  2.02163
   7534.40  2.02934
   7545.60  2.03706
   7556.80  2.04482
   7568.00  2.05259
   7579.20  2.06038
   7590.40  2.06820
   7601.60  2.07602
   7612.80  2.08387
   7624.00  2.09173
   7635.20  2.09962
   7646.40  2.10752
   7657.60  2.11544
   7668.80  2.12337
   7680.00  2.13133
   7691.20  2.13930
   7702.40  2.14729
   7713.60  2.15529
   7724.80  2.16332
   7736.00  2.17136
   7747.20  2.17942
   7758.40  2.18750
   7769.60  2.19560
   7780.80  2.20371
   7792.00  2.21185
   7803.20  2.22001
   7814.40  2.22819
   7825.60  2.23639
   7836.80  2.24461
   7848.00  2.25285
   7859.20  2.26111
   7870.40  2.26938
   7881.60  2.27767
   7892.80  2.28599
   7904.00  2.29432
   7915.20  2.30267
   7926.40  2.31103
   7937.60  2.31942
   7948.80  2.32782
   7960.00  2.33624
   7971.20  2.34468
   7982.40  2.35314
   7993.60  2.36162
   8004.80  2.37011
   8016.00  2.37863
   8027.20  2.38716
   8038.40  2.39571
   8049.60  2.40428
   8060.80  2.41288
   8072.00  2.42149
   8083.20  2.43012
   8094.40  2.43877
   8105.60  2.44744
   8116.80  2.45612
   8128.00  2.46483
   8139.20  2.47355
   8150.40  2.48229
   8161.60  2.49106
   8172.80  2.49984
   8184.00  2.50864
   8195.20  2.51747
   8206.40  2.52632
   8217.60  2.53518
   8228.80  2.54407
   8240.00  2.55297
   8251.20  2.56190
   8262.40  2.57084
   8273.60  2.57980
   8284.80  2.58878
   8296.00  2.59778
   8307.20  2.60679
   8318.40  2.61583
   8329.60  2.62489
   8340.80  2.63397
   8352.00  2.64306
   8363.20  2.65218
   8374.40  2.66132
   8385.60  2.67047
   8396.80  2.67964
   8408.00  2.68883
   8419.20  2.69804
   8430.40  2.70727
   8441.60  2.71652
   8452.80  2.72580
   8464.00  2.73509
   8475.20  2.74440
   8486.40  2.75373
   8497.60  2.76308
   8508.80  2.77245
   8520.00  2.78184
   8531.20  2.79125
   8542.40  2.80068
   8553.60  2.81013
   8564.80  2.81960
   8576.00  2.82908
   8587.20  2.83859
   8598.40  2.84812
   8609.60  2.85766
   8620.80  2.86722
   8632.00  2.87680
   8643.20  2.88641
   8654.40  2.89603
   8665.60  2.90567
   8676.80  2.91533
   8688.00  2.92501
   8699.20  2.93472
   8710.40  2.94444
   8721.60  2.95417
   8732.80  2.96395
   8744.00  2.97375
   8755.20  2.98357
   8766.40  2.99341
   8777.60  3.00327
   8788.80  3.01314
   8800.00  3.02305
   8811.20  3.03296
   8822.40  3.04290
   8833.60  3.05286
   8844.80  3.06284
   8856.00  3.07283
   8867.20  3.08285
   8878.40  3.09287
   8889.60  3.10292
   8900.80  3.11299
   8912.00  3.12307
   8923.20  3.13318
   8934.40  3.14331
   8945.60  3.15345
   8956.80  3.16362
   8968.00  3.17380
   8979.20  3.18401
   8990.40  3.19424
   9001.60  3.20449
   9012.80  3.21476
   9024.00  3.22506
   9035.20  3.23538
   9046.40  3.24572
   9057.60  3.25608
   9068.80  3.26646
   9080.00  3.27686
   9091.20  3.28728
   9102.40  3.29773
   9113.60  3.30818
   9124.80  3.31867
   9136.00  3.32917
   9147.20  3.33969
   9158.40  3.35023
   9169.60  3.36080
   9180.80  3.37139
   9192.00  3.38200
   9203.20  3.39263
   9214.40  3.40327
   9225.60  3.41394
   9236.80  3.42463
   9248.00  3.43534
   9259.20  3.44607
   9270.40  3.45682
   9281.60  3.46759
   9292.80  3.47838
   9304.00  3.48920
   9315.20  3.50004
   9326.40  3.51090
   9337.60  3.52178
   9348.80  3.53268
   9360.00  3.54360
   9371.20  3.55454
   9382.40  3.56551
   9393.60  3.57649
   9404.80  3.58749
   9416.00  3.59852
   9427.20  3.60957
   9438.40  3.62064
   9449.60  3.63172
   9460.80  3.64284
   9472.00  3.65398
   9483.20  3.66514
   9494.40  3.67632
   9505.60  3.68752
   9516.80  3.69874
   9528.00  3.70998
   9539.20  3.72125
   9550.40  3.73253
   9561.60  3.74383
   9572.80  3.75516
   9584.00  3.76651
   9595.20  3.77788
   9606.40  3.78927
   9617.60  3.80068
   9628.80  3.81211
   9640.00  3.82356
   9651.20  3.83503
   9662.40  3.84653
   9673.60  3.85804
   9684.80  3.86958
   9696.00  3.88114
   9707.20  3.89271
   9718.40  3.90431
   9729.60  3.91593
   9740.80  3.92757
   9752.00  3.93923
   9763.20  3.95093
   9774.40  3.96264
   9785.60  3.97438
   9796.80  3.98614
   9808.00  3.99793
   9819.20  4.00973
   9830.40  4.02156
   9841.60  4.03340
   9852.80  4.04527
   9864.00  4.05716
   9875.20  4.06907
   9886.40  4.08100
   9897.60  4.09295
   9908.80  4.10493
   9920.00  4.11721
   9931.20  4.12993
   9942.40  4.14267
   9953.60  4.15544
   9964.80  4.16824
   9976.00  4.18106
   9987.20  4.19391
   9998.40  4.20678
   10009.6  4.21968
   10020.8  4.23260
   10032.0  4.24554
   10043.2  4.25852
   10054.4  4.27151
   10065.6  4.28453
   10076.8  4.29758
   10088.0  4.31067
   10099.2  4.32379
   10110.4  4.33693
   10121.6  4.35009
   10132.8  4.36328
   10144.0  4.37649
   10155.2  4.38973
   10166.4  4.40300
   10177.6  4.41629
   10188.8  4.42960
   10200.0  4.44294
   10211.2  4.45631
   10222.4  4.46971
   10233.6  4.48312
   10244.8  4.49658
   10256.0  4.51007
   10267.2  4.52358
   10278.4  4.53712
   10289.6  4.55069
   10300.8  4.56428
   10312.0  4.57790
   10323.2  4.59155
   10334.4  4.60522
   10345.6  4.61891
   10356.8  4.63263
   10368.0  4.64637
   10379.2  4.66015
   10390.4  4.67395
   10401.6  4.68777
   10412.8  4.70164
   10424.0  4.71553
   10435.2  4.72945
   10446.4  4.74340
   10457.6  4.75737
   10468.8  4.77138
   10480.0  4.78540
   10491.2  4.79945
   10502.4  4.81353
   10513.6  4.82763
   10524.8  4.84176
   10536.0  4.85592
   10547.2  4.87010
   10558.4  4.88431
   10569.6  4.89855
   10580.8  4.91282
   10592.0  4.92713
   10603.2  4.94147
   10614.4  4.95583
   10625.6  4.97022
   10636.8  4.98462
   10648.0  4.99907
   10659.2  5.01353
   10670.4  5.02803
   10681.6  5.04255
   10692.8  5.05710
   10704.0  5.07167
   10715.2  5.08627
   10726.4  5.10090
   10737.6  5.11555
   10748.8  5.13025
   10760.0  5.14497
   10771.2  5.15972
   10782.4  5.17450
   10793.6  5.18932
   10804.8  5.20415
   10816.0  5.21901
   10827.2  5.23390
   10838.4  5.24882
   10849.6  5.26376
   10860.8  5.27873
   10872.0  5.29373
   10883.2  5.30875
   10894.4  5.32380
   10905.6  5.33888
   10916.8  5.35399
   10928.0  5.36914
   10939.2  5.38432
   10950.4  5.39953
   10961.6  5.41476
   10972.8  5.43003
   10984.0  5.44532
   10995.2  5.46063
   11006.4  5.47598
   11017.6  5.49135
   11028.8  5.50675
   11040.0  5.52218
   11051.2  5.53763
   11062.4  5.55311
   11073.6  5.56862
   11084.8  5.58416
   11096.0  5.59973
   11107.2  5.61535
   11118.4  5.63099
   11129.6  5.64667
   11140.8  5.66236
   11152.0  5.67810
   11163.2  5.69386
   11174.4  5.70964
   11185.6  5.72545
   11196.8  5.74129
   11208.0  5.75716
   11219.2  5.77306
   11230.4  5.78898
   11241.6  5.80493
   11252.8  5.82091
   11264.0  5.83691
   11275.2  5.85296
   11286.4  5.86905
   11297.6  5.88517
   11308.8  5.90131
   11320.0  5.91748
   11331.2  5.93368
   11342.4  5.94991
   11353.6  5.96616
   11364.8  5.98245
   11376.0  5.99876
   11387.2  6.01511
   11398.4  6.03148
   11409.6  6.04788
   11420.8  6.06430
   11432.0  6.08075
   11443.2  6.09724
   11454.4  6.11375
   11465.6  6.13029
   11476.8  6.14685
   11488.0  6.16344
   11499.2  6.18006
   11510.4  6.19671
   11521.6  6.21339
   11532.8  6.23009
   11544.0  6.24683
   11555.2  6.26359
   11566.4  2.39476
   11577.6  2.40122
   11588.8  2.40769
   11600.0  2.41417
   11611.2  2.42065
   11622.4  2.42715
   11633.6  2.43366
   11644.8  2.44019
   11656.0  2.44672
   11667.2  2.45327
   11678.4  2.45983
   11689.6  2.46640
   11700.8  2.47298
   11712.0  2.47957
   11723.2  2.48617
   11734.4  2.49278
   11745.6  2.49941
   11756.8  2.50604
   11768.0  2.51269
   11779.2  2.51935
   11790.4  2.52602
   11801.6  2.53270
   11812.8  2.53939
   11824.0  2.54610
   11835.2  2.55282
   11846.4  2.55954
   11857.6  2.56628
   11868.8  2.57303
   11880.0  2.57979
   11891.2  2.58656
   11902.4  2.59334
   11913.6  2.60014
   11924.8  2.60694
   11936.0  2.61376
   11947.2  2.62059
   11958.4  2.62743
   11969.6  2.63428
   11980.8  2.64114
   11992.0  2.64802
   12003.2  2.65491
   12014.4  2.66180
   12025.6  2.66871
   12036.8  2.67563
   12048.0  2.68256
   12059.2  2.68950
   12070.4  2.69645
   12081.6  2.70341
   12092.8  2.71039
   12104.0  2.71737
   12115.2  2.72437
   12126.4  2.73138
   12137.6  2.73841
   12148.8  2.74544
   12160.0  2.75249
   12171.2  2.75954
   12182.4  2.76661
   12193.6  2.77369
   12204.8  2.78078
   12216.0  2.78788
   12227.2  2.79500
   12238.4  2.80213
   12249.6  2.80927
   12260.8  2.81642
   12272.0  2.82359
   12283.2  2.83076
   12294.4  2.83795
   12305.6  2.84515
   12316.8  2.85236
   12328.0  2.85958
   12339.2  2.86681
   12350.4  2.87406
   12361.6  2.88132
   12372.8  2.88859
   12384.0  2.89587
   12395.2  2.90316
   12406.4  2.91047
   12417.6  2.91778
   12428.8  2.92511
   12440.0  2.93245
   12451.2  2.93979
   12462.4  2.94715
   12473.6  2.95453
   12484.8  2.96191
   12496.0  2.96930
   12507.2  2.97672
   12518.4  2.98413
   12529.6  2.99157
   12540.8  2.99901
   12552.0  3.00647
   12563.2  3.01393
   12574.4  3.02141
   12585.6  3.02890
   12596.8  3.03641
   12608.0  3.04392
   12619.2  3.05145
   12630.4  3.05899
   12641.6  3.06653
   12652.8  3.07410
   12664.0  3.08168
   12675.2  3.08926
   12686.4  3.09686
   12697.6  3.10447
   12708.8  3.11210
   12720.0  3.11973
   12731.2  3.12738
   12742.4  3.13503
   12753.6  3.14270
   12764.8  3.15039
   12776.0  3.15809
   12787.2  3.16579
   12798.4  3.17351
   12809.6  3.18124
   12820.8  3.18898
   12832.0  3.19674
   12843.2  3.20450
   12854.4  3.21228
   12865.6  3.22007
   12876.8  3.22787
   12888.0  3.23568
   12899.2  3.24351
   12910.4  3.25134
   12921.6  3.25919
   12932.8  3.26705
   12944.0  3.27493
   12955.2  3.28281
   12966.4  3.29071
   12977.6  3.29862
   12988.8  3.30654
   13000.0  3.31448
