 S Density=1., Angle=90.deg
 Photon Energy (eV), Atten Length (microns)
   6800.00  68.8868
   6814.40  69.3011
   6828.80  69.7167
   6843.20  70.1341
   6857.60  70.5531
   6872.00  70.9737
   6886.40  71.3960
   6900.80  71.8198
   6915.20  72.2453
   6929.60  72.6724
   6944.00  73.1012
   6958.40  73.5315
   6972.80  73.9639
   6987.20  74.3984
   7001.60  74.8345
   7016.00  75.2723
   7030.40  75.7117
   7044.80  76.1529
   7059.20  76.5956
   7073.60  77.0401
   7088.00  77.4863
   7102.40  77.9343
   7116.80  78.3840
   7131.20  78.8355
   7145.60  79.2885
   7160.00  79.7432
   7174.40  80.1996
   7188.80  80.6577
   7203.20  81.1181
   7217.60  81.5804
   7232.00  82.0444
   7246.40  82.5102
   7260.80  82.9777
   7275.20  83.4468
   7289.60  83.9178
   7304.00  84.3903
   7318.40  84.8646
   7332.80  85.3409
   7347.20  85.8188
   7361.60  86.2983
   7376.00  86.7796
   7390.40  87.2627
   7404.80  87.7475
   7419.20  88.2340
   7433.60  88.7226
   7448.00  89.2134
   7462.40  89.7058
   7476.80  90.2001
   7491.20  90.6961
   7505.60  91.1939
   7520.00  91.6935
   7534.40  92.1948
   7548.80  92.6979
   7563.20  93.2030
   7577.60  93.7100
   7592.00  94.2187
   7606.40  94.7292
   7620.80  95.2415
   7635.20  95.7555
   7649.60  96.2714
   7664.00  96.7891
   7678.40  97.3085
   7692.80  97.8299
   7707.20  98.3531
   7721.60  98.8780
   7736.00  99.4048
   7750.40  99.9334
   7764.80  100.464
   7779.20  100.996
   7793.60  101.530
   7808.00  102.067
   7822.40  102.605
   7836.80  103.146
   7851.20  103.688
   7865.60  104.232
   7880.00  104.778
   7894.40  105.325
   7908.80  105.875
   7923.20  106.427
   7937.60  106.981
   7952.00  107.537
   7966.40  108.094
   7980.80  108.654
   7995.20  109.215
   8009.60  109.779
   8024.00  110.344
   8038.40  110.911
   8052.80  111.480
   8067.20  112.052
   8081.60  112.625
   8096.00  113.200
   8110.40  113.777
   8124.80  114.356
   8139.20  114.937
   8153.60  115.519
   8168.00  116.104
   8182.40  116.691
   8196.80  117.280
   8211.20  117.871
   8225.60  118.464
   8240.00  119.059
   8254.40  119.655
   8268.80  120.254
   8283.20  120.855
   8297.60  121.457
   8312.00  122.062
   8326.40  122.669
   8340.80  123.278
   8355.20  123.889
   8369.60  124.501
   8384.00  125.116
   8398.40  125.733
   8412.80  126.352
   8427.20  126.972
   8441.60  127.595
   8456.00  128.220
   8470.40  128.847
   8484.80  129.477
   8499.20  130.108
   8513.60  130.741
   8528.00  131.377
   8542.40  132.014
   8556.80  132.653
   8571.20  133.295
   8585.60  133.938
   8600.00  134.584
   8614.40  135.232
   8628.80  135.881
   8643.20  136.534
   8657.60  137.187
   8672.00  137.843
   8686.40  138.501
   8700.80  139.161
   8715.20  139.823
   8729.60  140.488
   8744.00  141.155
   8758.40  141.823
   8772.80  142.494
   8787.20  143.167
   8801.60  143.842
   8816.00  144.519
   8830.40  145.198
   8844.80  145.879
   8859.20  146.562
   8873.60  147.248
   8888.00  147.936
   8902.40  148.626
   8916.80  149.319
   8931.20  150.013
   8945.60  150.709
   8960.00  151.408
   8974.40  152.109
   8988.80  152.811
   9003.20  153.516
   9017.60  154.224
   9032.00  154.933
   9046.40  155.645
   9060.80  156.358
   9075.20  157.074
   9089.60  157.792
   9104.00  158.512
   9118.40  159.235
   9132.80  159.959
   9147.20  160.686
   9161.60  161.415
   9176.00  162.146
   9190.40  162.880
   9204.80  163.616
   9219.20  164.353
   9233.60  165.093
   9248.00  165.836
   9262.40  166.580
   9276.80  167.327
   9291.20  168.075
   9305.60  168.827
   9320.00  169.581
   9334.40  170.336
   9348.80  171.095
   9363.20  171.855
   9377.60  172.618
   9392.00  173.382
   9406.40  174.149
   9420.80  174.918
   9435.20  175.690
   9449.60  176.463
   9464.00  177.240
   9478.40  178.018
   9492.80  178.799
   9507.20  179.581
   9521.60  180.366
   9536.00  181.154
   9550.40  181.943
   9564.80  182.735
   9579.20  183.529
   9593.60  184.326
   9608.00  185.124
   9622.40  185.926
   9636.80  186.730
   9651.20  187.536
   9665.60  188.344
   9680.00  189.155
   9694.40  189.968
   9708.80  190.783
   9723.20  191.600
   9737.60  192.420
   9752.00  193.242
   9766.40  194.066
   9780.80  194.893
   9795.20  195.723
   9809.60  196.554
   9824.00  197.389
   9838.40  198.225
   9852.80  199.064
   9867.20  199.905
   9881.60  200.748
   9896.00  201.593
   9910.40  202.441
   9924.80  203.292
   9939.20  204.145
   9953.60  205.001
   9968.00  205.859
   9982.40  206.719
   9996.80  207.582
   10011.2  208.447
   10025.6  209.315
   10040.0  210.184
   10054.4  211.056
   10068.8  211.931
   10083.2  212.808
   10097.6  213.687
   10112.0  214.570
   10126.4  215.454
   10140.8  216.341
   10155.2  217.230
   10169.6  218.121
   10184.0  219.015
   10198.4  219.911
   10212.8  220.810
   10227.2  221.711
   10241.6  222.615
   10256.0  223.522
   10270.4  224.430
   10284.8  225.342
   10299.2  226.256
   10313.6  227.172
   10328.0  228.091
   10342.4  229.012
   10356.8  229.935
   10371.2  230.861
   10385.6  231.790
   10400.0  232.721
   10414.4  233.655
   10428.8  234.591
   10443.2  235.530
   10457.6  236.471
   10472.0  237.415
   10486.4  238.361
   10500.8  239.310
   10515.2  240.261
   10529.6  241.214
   10544.0  242.170
   10558.4  243.129
   10572.8  244.090
   10587.2  245.054
   10601.6  246.020
   10616.0  246.990
   10630.4  247.961
   10644.8  248.935
   10659.2  249.912
   10673.6  250.891
   10688.0  251.872
   10702.4  252.856
   10716.8  253.843
   10731.2  254.832
   10745.6  255.823
   10760.0  256.819
   10774.4  257.816
   10788.8  258.815
   10803.2  259.818
   10817.6  260.823
   10832.0  261.831
   10846.4  262.840
   10860.8  263.853
   10875.2  264.868
   10889.6  265.886
   10904.0  266.905
   10918.4  267.928
   10932.8  268.954
   10947.2  269.983
   10961.6  271.014
   10976.0  272.048
   10990.4  273.084
   11004.8  274.123
   11019.2  275.165
   11033.6  276.208
   11048.0  277.255
   11062.4  278.304
   11076.8  279.355
   11091.2  280.410
   11105.6  281.468
   11120.0  282.528
   11134.4  283.591
   11148.8  284.657
   11163.2  285.726
   11177.6  286.796
   11192.0  287.870
   11206.4  288.946
   11220.8  290.025
   11235.2  291.106
   11249.6  292.190
   11264.0  293.277
   11278.4  294.367
   11292.8  295.460
   11307.2  296.555
   11321.6  297.653
   11336.0  298.754
   11350.4  299.857
   11364.8  300.963
   11379.2  302.072
   11393.6  303.183
   11408.0  304.298
   11422.4  305.414
   11436.8  306.533
   11451.2  307.655
   11465.6  308.781
   11480.0  309.909
   11494.4  311.039
   11508.8  312.173
   11523.2  313.309
   11537.6  314.448
   11552.0  315.589
   11566.4  316.733
   11580.8  317.881
   11595.2  319.030
   11609.6  320.182
   11624.0  321.337
   11638.4  322.495
   11652.8  323.656
   11667.2  324.820
   11681.6  325.986
   11696.0  327.156
   11710.4  328.328
   11724.8  329.503
   11739.2  330.681
   11753.6  331.861
   11768.0  333.044
   11782.4  334.229
   11796.8  335.418
   11811.2  336.609
   11825.6  337.804
   11840.0  339.001
   11854.4  340.202
   11868.8  341.405
   11883.2  342.612
   11897.6  343.821
   11912.0  345.033
   11926.4  346.248
   11940.8  347.465
   11955.2  348.686
   11969.6  349.909
   11984.0  351.135
   11998.4  352.363
   12012.8  353.595
   12027.2  354.829
   12041.6  356.067
   12056.0  357.307
   12070.4  358.551
   12084.8  359.796
   12099.2  361.045
   12113.6  362.297
   12128.0  363.551
   12142.4  364.809
   12156.8  366.069
   12171.2  367.332
   12185.6  368.597
   12200.0  369.866
   12214.4  371.137
   12228.8  372.413
   12243.2  373.692
   12257.6  374.973
   12272.0  376.258
   12286.4  377.546
   12300.8  378.836
   12315.2  380.129
   12329.6  381.425
   12344.0  382.724
   12358.4  384.026
   12372.8  385.330
   12387.2  386.638
   12401.6  387.948
   12416.0  389.262
   12430.4  390.578
   12444.8  391.898
   12459.2  393.220
   12473.6  394.546
   12488.0  395.874
   12502.4  397.205
   12516.8  398.539
   12531.2  399.876
   12545.6  401.216
   12560.0  402.559
   12574.4  403.904
   12588.8  405.254
   12603.2  406.605
   12617.6  407.960
   12632.0  409.319
   12646.4  410.681
   12660.8  412.046
   12675.2  413.414
   12689.6  414.784
   12704.0  416.158
   12718.4  417.534
   12732.8  418.914
   12747.2  420.297
   12761.6  421.682
   12776.0  423.071
   12790.4  424.462
   12804.8  425.857
   12819.2  427.254
   12833.6  428.655
   12848.0  430.059
   12862.4  431.466
   12876.8  432.876
   12891.2  434.289
   12905.6  435.706
   12920.0  437.125
   12934.4  438.547
   12948.8  439.972
   12963.2  441.400
   12977.6  442.830
   12992.0  444.265
   13006.4  445.702
   13020.8  447.142
   13035.2  448.587
   13049.6  450.035
   13064.0  451.486
   13078.4  452.940
   13092.8  454.397
   13107.2  455.857
   13121.6  457.320
   13136.0  458.786
   13150.4  460.256
   13164.8  461.729
   13179.2  463.204
   13193.6  464.683
   13208.0  466.164
   13222.4  467.649
   13236.8  469.137
   13251.2  470.629
   13265.6  472.123
   13280.0  473.622
   13294.4  475.122
   13308.8  476.626
   13323.2  478.133
   13337.6  479.644
   13352.0  481.157
   13366.4  482.674
   13380.8  484.193
   13395.2  485.716
   13409.6  487.241
   13424.0  488.771
   13438.4  490.302
   13452.8  491.838
   13467.2  493.378
   13481.6  494.920
   13496.0  496.467
   13510.4  498.016
   13524.8  499.569
   13539.2  501.124
   13553.6  502.682
   13568.0  504.245
   13582.4  505.810
   13596.8  507.378
   13611.2  508.949
   13625.6  510.524
   13640.0  512.101
   13654.4  513.682
   13668.8  515.266
   13683.2  516.854
   13697.6  518.445
   13712.0  520.039
   13726.4  521.637
   13740.8  523.238
   13755.2  524.841
   13769.6  526.448
   13784.0  528.058
   13798.4  529.672
   13812.8  531.288
   13827.2  532.909
   13841.6  534.531
   13856.0  536.157
   13870.4  537.787
   13884.8  539.420
   13899.2  541.057
   13913.6  542.698
   13928.0  544.343
   13942.4  545.991
   13956.8  547.641
   13971.2  549.295
   13985.6  550.952
   14000.0  552.614
